Frame,Time,Right Biceps brachii caput longus,Left Biceps brachii caput longus,Right Pectoralis Major,Left Pectoralis Major
0,0.000,-0.3,-0.2,-0.5,-0.4
1,0.001,-0.3,-0.2,-0.5,-0.4
2,0.002,-0.3,-0.2,-0.4,-0.4
3,0.003,-0.3,-0.2,-0.4,-0.3
4,0.004,-0.3,-0.2,-0.4,-0.3
5,0.005,-0.3,-0.2,-0.3,-0.3
6,0.006,-0.3,-0.2,-0.3,-0.2
7,0.007,-0.3,-0.2,-0.3,-0.2
8,0.008,-0.3,-0.2,-0.2,-0.2
9,0.009,-0.3,-0.2,-0.2,-0.1
10,0.010,-0.3,-0.2,-0.2,-0.1
11,0.011,-0.3,-0.2,-0.1,-0.0
12,0.012,-0.3,-0.2,-0.1,0.0
13,0.013,-0.3,-0.2,-0.0,0.1
14,0.014,-0.2,-0.2,0.0,0.1
15,0.015,-0.2,-0.2,0.0,0.2
16,0.016,-0.2,-0.2,0.1,0.2
17,0.017,-0.2,-0.1,0.1,0.2
18,0.018,-0.1,-0.1,0.2,0.3
19,0.019,-0.0,-0.1,0.2,0.3
20,0.020,0.1,-0.1,0.3,0.4
21,0.021,0.2,-0.0,0.3,0.4
22,0.022,0.3,0.0,0.4,0.5
23,0.023,0.5,0.1,0.5,0.6
24,0.024,0.5,0.1,0.5,0.6
25,0.025,0.6,0.2,0.6,0.7
26,0.026,0.6,0.2,0.7,0.8
27,0.027,0.6,0.3,0.7,0.9
28,0.028,0.6,0.3,0.8,1.0
29,0.029,0.6,0.4,0.9,1.0
30,0.030,0.6,0.5,0.9,1.1
31,0.031,0.5,0.5,1.0,1.2
32,0.032,0.5,0.5,1.1,1.3
33,0.033,0.5,0.6,1.1,1.4
34,0.034,0.5,0.6,1.2,1.5
35,0.035,0.5,0.6,1.3,1.6
36,0.036,0.5,0.7,1.4,1.7
37,0.037,0.6,0.7,1.5,1.8
38,0.038,0.6,0.8,1.6,1.9
39,0.039,0.6,0.9,1.7,2.0
40,0.040,0.6,0.9,1.7,2.1
41,0.041,0.7,1.0,1.8,2.2
42,0.042,0.7,1.0,1.9,2.3
43,0.043,0.7,1.1,2.0,2.4
44,0.044,0.8,1.2,2.1,2.5
45,0.045,0.8,1.2,2.2,2.6
46,0.046,0.9,1.3,2.3,2.7
47,0.047,0.9,1.4,2.4,2.8
48,0.048,1.0,1.5,2.5,2.9
49,0.049,4.6,-1.0,-1.6,2.3
50,0.050,2.7,0.5,-5.3,-0.6
51,0.051,-1.5,1.0,-13.2,-8.5
52,0.052,-5.1,-0.9,-9.9,-9.4
53,0.053,-2.5,-0.5,-6.9,-12.3
54,0.054,0.5,4.6,-9.4,-5.4
55,0.055,5.0,2.4,-8.4,-0.9
56,0.056,6.7,4.4,-1.7,-9.6
57,0.057,-1.3,1.5,-0.7,-10.5
58,0.058,-4.7,5.3,-1.4,-11.3
59,0.059,-5.7,5.8,2.4,3.3
60,0.060,-2.7,1.0,7.0,13.7
61,0.061,-3.5,1.7,-1.9,0.5
62,0.062,-5.8,-0.1,4.7,-4.5
63,0.063,-3.6,-3.7,3.6,3.4
64,0.064,-5.4,-8.0,2.7,7.6
65,0.065,-7.0,-6.2,1.8,6.4
66,0.066,-15.0,-3.4,1.0,0.6
67,0.067,-32.3,-1.8,5.1,6.0
68,0.068,-54.6,-7.4,1.6,7.0
69,0.069,-38.9,-8.1,-2.8,-6.2
70,0.070,-19.3,-10.1,-1.0,-0.4
71,0.071,-11.6,-15.8,-5.7,4.7
72,0.072,9.1,-14.8,0.3,-6.1
73,0.073,22.9,-3.8,9.2,-4.6
74,0.074,35.4,7.1,3.4,-3.2
75,0.075,46.6,5.7,-3.9,-8.9
76,0.076,56.8,2.0,-0.9,-3.5
77,0.077,43.3,5.5,-3.4,-8.2
78,0.078,38.0,-6.1,7.1,-0.1
79,0.079,33.2,11.2,11.2,1.0
80,0.080,23.3,13.5,2.2,-1.9
81,0.081,6.4,11.4,1.1,0.8
82,0.082,-0.4,13.3,0.2,4.9
83,0.083,-2.5,8.2,-2.6,-4.5
84,0.084,-8.1,3.6,-5.2,-3.1
85,0.085,-13.1,-0.5,-12.3,9.8
86,0.086,-20.7,-4.3,2.3,-2.2
87,0.087,-13.5,1.6,0.3,8.7
88,0.088,-1.7,0.6,9.7,10.1
89,0.089,-6.3,-2.3,1.1,-1.6
90,0.090,-7.6,-1.4,-0.4,-0.1
91,0.091,-6.2,-6.9,-4.5,1.3
92,0.092,-7.1,-4.7,-3.1,0.1
93,0.093,-14.4,-1.5,-15.9,1.2
94,0.094,-13.2,0.3,-3.9,-10.4
95,0.095,-12.2,-6.8,7.0,-5.7
96,0.096,-12.9,-15.5,-2.8,4.1
97,0.097,-7.7,-23.6,-1.5,5.4
98,0.098,-8.3,-11.9,-5.0,1.9
99,0.099,-1.6,-1.0,0.3,-5.5
100,0.100,6.3,-2.5,1.3,-4.5
101,0.101,7.4,9.1,-4.9,1.7
102,0.102,6.4,19.8,-5.7,-2.3
103,0.103,-1.4,18.2,5.2,-3.1
104,0.104,6.0,-1.4,9.7,5.5
105,0.105,14.7,-20.8,-5.9,6.5
106,0.106,8.8,-13.3,-12.2,-3.1
107,0.107,-5.0,-6.5,-29.1,-4.4
108,0.108,-14.4,12.1,5.3,-7.9
109,0.109,-22.8,24.5,0.4,3.8
110,0.110,-8.5,22.1,4.8,-0.9
111,0.111,1.0,15.6,0.6,0.4
112,0.112,2.7,6.1,-3.1,1.7
113,0.113,-2.0,-2.6,-6.5,-1.8
114,0.114,-0.6,-16.7,-3.5,-5.0
115,0.115,3.2,-29.8,-0.8,-4.0
116,0.116,-7.3,-24.6,1.6,3.8
117,0.117,-0.3,-10.5,8.3,0.7
118,0.118,6.2,-1.1,2.0,-0.4
119,0.119,-2.0,3.9,7.5,0.5
120,0.120,-9.2,5.3,-1.2,-0.4
121,0.121,-13.9,9.3,-9.0,-2.6
122,0.122,-18.0,7.8,3.8,-3.3
123,0.123,-12.1,-3.0,5.4,-6.3
124,0.124,-18.4,-13.0,-5.6,-0.4
125,0.125,-15.5,-19.5,1.4,2.0
126,0.126,-3.3,-20.7,-2.5,-6.1
127,0.127,12.3,-23.9,10.3,3.5
128,0.128,14.4,-26.8,15.3,2.1
129,0.129,35.1,-22.4,-8.3,0.9
130,0.130,48.7,-12.0,-4.9,-2.2
131,0.131,50.8,0.7,4.1,-3.2
132,0.132,39.1,5.7,1.3,1.1
133,0.133,15.9,10.2,-1.2,-2.9
134,0.134,0.4,11.4,-3.5,0.6
135,0.135,-2.4,12.6,-1.4,-2.7
136,0.136,-4.9,15.9,8.0,1.4
137,0.137,-7.3,23.1,6.2,0.9
138,0.138,-5.3,20.0,1.5,8.3
139,0.139,-22.3,22.5,5.6,0.8
140,0.140,-33.7,15.2,-0.9,-5.9
141,0.141,-15.5,17.5,0.2,0.3
142,0.142,-5.1,22.1,3.6,6.4
143,0.143,-7.0,22.9,0.5,8.7
144,0.144,-5.4,15.6,-2.4,0.7
145,0.145,2.2,12.7,0.2,-0.4
146,0.146,6.3,11.8,2.6,2.5
147,0.147,4.9,12.6,-2.4,3.3
148,0.148,1.3,8.9,-1.8,2.5
149,0.149,0.2,7.1,-1.2,1.8
150,0.150,-10.4,5.4,6.9,-1.5
151,0.151,-17.4,5.0,10.4,-2.0
152,0.152,-10.9,-2.4,0.8,5.1
153,0.153,-0.3,-3.3,-5.6,6.0
154,0.154,9.5,-4.1,12.0,3.4
155,0.155,18.5,-3.0,9.6,7.4
156,0.156,7.8,-14.9,2.8,6.7
157,0.157,-7.8,-23.2,9.1,6.1
158,0.158,-14.1,-27.6,7.3,9.1
159,0.159,-4.6,-31.5,5.7,6.5
160,0.160,10.9,-27.3,1.1,2.1
161,0.161,12.9,-21.2,-0.2,2.7
162,0.162,18.4,-11.3,1.2,2.3
163,0.163,13.2,-9.8,-16.3,1.8
164,0.164,11.6,-13.0,1.4,-4.7
165,0.165,7.4,-7.6,-0.7,-3.7
166,0.166,-12.1,3.3,9.8,-2.7
167,0.167,-31.4,10.4,-3.4,-5.0
168,0.168,-23.8,22.3,-11.8,-1.3
169,0.169,-44.3,42.7,-13.2,-4.5
170,0.170,-52.3,40.0,5.4,-6.1
171,0.171,-59.6,37.6,3.0,-6.5
172,0.172,-38.7,44.5,0.9,-1.9
173,0.173,-8.0,34.2,-1.1,-1.3
174,0.174,-3.8,32.4,-2.8,2.5
175,0.175,-0.1,23.9,2.4,-2.8
176,0.176,16.7,10.0,0.9,2.3
177,0.177,38.0,-10.7,-3.2,4.3
178,0.178,62.9,-18.7,3.4,2.6
179,0.179,59.3,-15.9,0.1,3.2
180,0.180,43.9,-17.9,-5.2,6.7
181,0.181,35.5,-15.7,-6.0,2.8
182,0.182,17.9,-21.1,-1.5,3.3
183,0.183,20.1,-19.3,5.8,-0.0
184,0.184,18.0,-17.6,-6.7,6.7
185,0.185,16.1,-18.9,5.4,9.7
186,0.186,17.7,-14.9,3.9,3.6
187,0.187,6.7,-11.4,-3.1,-0.3
188,0.188,-3.2,-10.3,-12.0,-1.0
189,0.189,5.8,-15.1,-6.1,9.0
190,0.190,6.8,-14.2,10.0,2.1
191,0.191,5.8,-13.5,3.2,-14.8
192,0.192,6.7,-11.4,1.2,-7.9
193,0.193,9.4,-8.1,3.1,-1.5
194,0.194,7.0,-5.2,-5.5,-7.1
195,0.195,-3.9,-5.8,-7.0,-1.9
196,0.196,-17.9,-6.4,5.9,-3.3
197,0.197,-15.9,-6.9,-2.7,-4.6
198,0.198,-24.4,-4.2,-10.4,-3.3
199,0.199,-29.0,-9.8,-6.2,-11.4
200,0.200,-33.1,-15.5,-7.5,-10.3
201,0.201,-39.6,-7.6,-1.6,-13.2
202,0.202,-21.9,-4.6,1.5,0.1
203,0.203,-4.2,-3.8,-7.2,-9.3
204,0.204,7.3,-3.0,-8.3,2.7
205,0.205,9.4,0.9,-1.0,-1.9
206,0.206,-0.1,7.3,-0.0,-14.7
207,0.207,-12.1,2.8,-0.9,-6.1
208,0.208,-7.5,3.4,3.1,-1.5
209,0.209,-3.3,2.5,5.2,5.6
210,0.210,0.5,-2.2,4.5,14.7
211,0.211,-2.9,-0.6,1.5,6.5
212,0.212,0.3,0.8,2.9,-0.9
213,0.213,-0.7,2.0,-0.6,5.8
214,0.214,3.7,5.9,6.0,1.3
215,0.215,3.0,3.0,6.9,2.1
216,0.216,2.3,-2.6,5.9,7.1
217,0.217,-1.0,-9.4,0.2,1.1
218,0.218,-10.0,-14.0,-0.5,5.1
219,0.219,-13.8,-15.0,0.0,10.1
220,0.220,-5.7,-17.3,2.9,6.8
221,0.221,-0.4,-16.9,-3.1,1.4
222,0.222,-1.4,-8.0,2.5,0.6
223,0.223,-0.5,-6.9,9.0,1.2
224,0.224,8.4,-1.3,2.7,6.6
225,0.225,5.0,6.0,1.8,4.3
226,0.226,6.2,12.5,2.5,3.6
227,0.227,7.2,16.8,1.7,5.4
228,0.228,3.0,27.0,1.1,1.6
229,0.229,-2.5,45.4,-1.7,0.1
230,0.230,-6.0,52.8,-3.2,0.4
231,0.231,-5.3,59.5,-8.2,-5.0
232,0.232,-4.6,53.1,-18.2,-7.2
233,0.233,3.6,35.9,-5.5,-14.5
234,0.234,16.6,24.3,13.4,-13.7
235,0.235,25.2,9.7,-9.5,-2.3
236,0.236,29.9,4.0,-12.8,-7.2
237,0.237,25.8,-1.1,-10.2,-8.7
238,0.238,29.7,-5.8,-7.9,-10.2
239,0.239,12.1,-7.1,-1.3,-4.6
240,0.240,9.6,-8.4,-3.6,-5.9
241,0.241,-11.1,-4.9,-5.7,0.5
242,0.242,-20.9,-9.5,1.9,-3.4
243,0.243,-29.2,-10.4,0.0,-4.6
244,0.244,-36.8,-13.2,4.5,-2.5
245,0.245,-34.6,-14.0,2.8,2.2
246,0.246,-15.8,-13.1,-1.3,2.5
247,0.247,-8.3,-13.8,-0.4,1.5
248,0.248,-1.5,-23.5,-3.9,1.5
249,0.249,8.9,-22.1,-1.3,8.5
250,0.250,14.4,-25.8,-2.5,2.7
251,0.251,30.0,-19.8,-0.4,-8.6
252,0.252,32.1,-14.4,2.8,-2.2
253,0.253,26.5,-20.9,0.6,-6.7
254,0.254,21.5,-18.1,6.8,-10.9
255,0.255,16.9,-7.5,-1.5,4.4
256,0.256,18.4,-3.1,-2.9,6.0
257,0.257,4.2,1.0,5.5,-13.6
258,0.258,-9.0,7.1,4.1,-11.7
259,0.259,-7.2,12.6,-3.6,-0.9
260,0.260,-2.4,23.6,-1.0,-7.7
261,0.261,4.7,33.8,-0.4,-10.2
262,0.262,-1.8,32.8,-3.0,-5.6
263,0.263,-9.9,29.6,-5.3,-7.6
264,0.264,-13.0,28.9,-10.0,-9.3
265,0.265,-19.8,28.2,-5.9,-11.0
266,0.266,-18.9,24.1,-7.5,-17.1
267,0.267,-6.8,15.5,-14.9,-14.1
268,0.268,8.7,5.1,-7.5,-17.0
269,0.269,6.6,4.0,-6.5,-21.4
270,0.270,4.7,-2.4,-5.5,-17.3
271,0.271,3.0,-5.7,-9.3,-7.7
272,0.272,1.5,-8.7,-5.5,-11.3
273,0.273,-5.6,-13.4,-5.9,-12.0
274,0.274,-12.1,-14.2,-2.6,-10.4
275,0.275,-25.1,-14.9,0.5,-10.8
276,0.276,-33.7,-15.5,-0.6,-3.8
277,0.277,-22.9,-13.4,6.6,1.0
278,0.278,-1.7,-10.4,15.8,1.3
279,0.279,-17.1,-6.6,-1.3,4.3
280,0.280,-36.7,-8.0,1.8,-1.1
281,0.281,-34.4,-8.3,4.7,11.6
282,0.282,-23.1,-9.5,7.4,17.6
283,0.283,-8.6,-11.9,25.3,20.3
284,0.284,4.5,-15.0,42.1,38.6
285,0.285,-0.7,-12.2,40.8,46.9
286,0.286,0.7,-7.5,36.0,50.5
287,0.287,7.7,-1.6,28.2,57.6
288,0.288,19.3,-4.1,27.5,57.4
289,0.289,30.1,-7.9,35.5,51.1
290,0.290,34.2,-9.9,29.8,54.0
291,0.291,32.8,-11.8,20.1,54.3
292,0.292,38.5,-7.0,25.1,52.3
293,0.293,41.5,2.7,32.5,52.8
294,0.294,34.6,18.2,34.5,68.9
295,0.295,21.2,28.5,38.6,76.6
296,0.296,-3.6,18.9,44.2,79.9
297,0.297,-7.1,10.1,38.9,96.9
298,0.298,2.0,2.2,46.9,121.4
299,0.299,-0.9,0.7,40.9,119.7
300,0.300,-33.9,-3.3,47.9,118.2
301,0.301,-38.5,-4.6,44.5,121.9
302,0.302,-18.1,-12.2,37.2,120.8
303,0.303,-21.9,-13.3,40.9,98.7
304,0.304,-25.4,-12.5,26.9,72.0
305,0.305,-40.8,-16.7,17.0,46.9
306,0.306,-38.1,-26.3,4.2,24.1
307,0.307,-20.6,-38.1,2.8,9.4
308,0.308,0.1,-39.8,4.7,12.7
309,0.309,8.3,-38.5,-13.6,-4.5
310,0.310,15.7,-34.8,-41.3,-24.9
311,0.311,22.5,-26.7,-52.3,-66.5
312,0.312,20.3,-15.1,-55.7,-84.3
313,0.313,25.9,-7.4,-71.0,-100.7
314,0.314,24.2,5.3,-73.9,-125.5
315,0.315,19.5,10.4,-76.5,-139.2
316,0.316,15.3,14.9,-74.6,-135.4
317,0.317,11.4,24.6,-60.2,-154.4
318,0.318,8.0,44.0,-55.0,-158.3
319,0.319,2.8,63.3,-60.6,-149.8
320,0.320,1.9,60.7,-65.7,-147.8
321,0.321,-4.2,49.0,-73.3,-171.5
322,0.322,1.5,34.2,-70.0,-181.6
323,0.323,5.3,24.6,-71.7,-190.8
324,0.324,15.3,12.4,-67.1,-194.4
325,0.325,22.6,10.7,-76.5,-188.8
326,0.326,29.3,12.0,-73.8,-188.0
327,0.327,28.3,10.6,-60.7,-187.5
328,0.328,33.8,7.0,-48.3,-166.4
329,0.329,31.1,-2.7,-54.2,-140.1
330,0.330,18.0,-9.2,-53.6,-100.8
331,0.331,1.1,-12.7,-47.4,-86.0
332,0.332,-10.3,-11.7,-52.3,-62.9
333,0.333,-24.8,-8.9,-35.6,-51.1
334,0.334,-22.8,-2.7,-29.0,-32.4
335,0.335,-31.3,-3.5,-18.5,6.7
336,0.336,-20.2,-4.2,-9.1,21.3
337,0.337,-21.4,-0.9,-0.7,34.2
338,0.338,-22.6,2.1,3.4,54.8
339,0.339,-4.7,0.6,7.0,65.2
340,0.340,-7.1,6.1,15.8,67.0
341,0.341,-9.2,8.2,18.6,75.2
342,0.342,-15.3,5.0,6.9,70.2
343,0.343,-14.4,4.6,12.1,76.0
344,0.344,-1.0,1.7,23.9,76.8
345,0.345,4.2,0.2,24.6,82.5
346,0.346,9.0,-3.2,37.7,82.9
347,0.347,13.2,-1.9,49.9,95.7
348,0.348,22.3,-3.0,54.1,99.5
349,0.349,18.9,-1.2,57.8,102.9
350,0.350,15.8,-5.6,55.6,109.0
351,0.351,11.0,-9.7,58.5,114.4
352,0.352,1.3,-11.1,65.9,111.5
353,0.353,-13.0,-5.6,72.4,111.1
354,0.354,-14.8,-6.2,68.8,112.7
355,0.355,-6.2,-1.6,65.4,114.1
356,0.356,-14.0,-3.2,70.3,106.6
357,0.357,-9.8,-5.8,74.7,107.7
358,0.358,-0.8,-11.2,76.1,107.2
359,0.359,0.3,-16.1,69.0,98.8
360,0.360,-2.8,-10.1,72.9,94.9
361,0.361,2.0,-14.0,65.3,84.3
362,0.362,4.6,-13.2,58.2,77.0
363,0.363,-7.5,-3.2,57.1,63.4
364,0.364,-12.6,-4.4,52.8,64.5
365,0.365,-11.1,-5.6,41.8,53.2
366,0.366,-12.5,-11.4,34.0,43.0
367,0.367,-19.0,-6.0,24.1,31.2
368,0.368,-22.4,0.9,15.2,23.4
369,0.369,-17.1,8.9,7.2,19.3
370,0.370,-20.0,20.8,-8.5,7.9
371,0.371,-33.2,25.5,-5.9,-8.9
372,0.372,-58.0,15.7,-7.7,-10.7
373,0.373,-48.0,9.1,-12.8,-12.1
374,0.374,-26.7,0.9,-20.9,-20.8
375,0.375,-7.4,-4.5,-21.9,-38.9
376,0.376,5.1,-3.6,-28.4,-45.5
377,0.377,16.4,-6.4,-34.2,-37.5
378,0.378,22.4,-5.7,-34.7,-42.6
379,0.379,39.4,-5.0,-17.9,-39.4
380,0.380,55.2,-3.2,-14.9,-39.6
381,0.381,52.9,-3.9,-24.5,-36.6
382,0.382,43.2,-6.6,-29.3,-36.3
383,0.383,34.4,-6.2,-26.7,-41.2
384,0.384,20.0,-9.3,-24.3,-33.7
385,0.385,14.2,-3.3,-24.8,-37.3
386,0.386,2.0,9.9,-25.1,-36.5
387,0.387,0.4,11.7,-25.3,-33.9
388,0.388,-1.1,13.4,-23.3,-36.2
389,0.389,0.1,11.8,-25.3,-35.2
390,0.390,1.2,13.1,-25.2,-34.2
391,0.391,-2.0,14.4,-28.3,-29.5
392,0.392,-1.1,3.8,-16.5,-35.0
393,0.393,-5.6,-3.3,-14.1,-34.4
394,0.394,-8.1,3.2,-17.4,-30.2
395,0.395,-1.6,2.0,-12.7,-24.8
396,0.396,1.1,-1.1,-10.8,-25.6
397,0.397,1.8,-6.0,-17.4,-23.6
398,0.398,-0.4,-12.2,-17.6,-25.3
399,0.399,-1.0,-14.6,-7.2,-31.2
400,0.400,-6.4,-18.3,-5.2,-23.3
401,0.401,-4.2,-9.7,-8.1,-17.8
402,0.402,4.4,-13.2,-10.6,-11.2
403,0.403,12.6,-10.1,-9.1,-8.1
404,0.404,13.7,-9.1,-4.2,-10.6
405,0.405,16.7,-6.5,-9.3,-12.8
406,0.406,24.8,-2.4,-6.8,-10.5
407,0.407,19.6,2.6,-4.5,-6.5
408,0.408,5.2,-0.7,-5.9,-3.7
409,0.409,7.5,5.9,-5.2,-4.5
410,0.410,5.7,10.3,-6.4,-3.0
411,0.411,-6.3,7.9,-5.8,-4.4
412,0.412,-10.9,4.3,-3.7,-6.1
413,0.413,-18.0,12.9,-4.6,-3.5
414,0.414,-37.5,11.8,-0.9,1.7
415,0.415,-57.0,6.5,-0.4,5.4
416,0.416,-49.4,3.7,1.7,3.5
417,0.417,-47.2,-2.4,4.5,2.9
418,0.418,-41.0,-6.4,6.9,4.3
419,0.419,-23.8,3.1,7.8,2.7
420,0.420,10.7,12.3,10.4,3.0
421,0.421,25.5,25.2,5.5,5.6
422,0.422,48.1,27.0,8.6,8.6
423,0.423,52.3,28.6,15.0,6.2
424,0.424,56.1,27.3,10.4,7.1
425,0.425,46.1,15.6,6.2,4.3
426,0.426,37.0,11.0,5.3,3.7
427,0.427,34.4,4.0,4.5,-0.5
428,0.428,32.0,-2.4,1.4,-0.4
429,0.429,25.3,-5.7,3.8,1.8
430,0.430,2.3,-15.2,2.2,5.5
431,0.431,-0.6,-24.2,6.0,4.6
432,0.432,-3.3,-23.0,5.4,2.9
433,0.433,-31.1,-13.2,1.7,2.1
434,0.434,-49.6,-9.2,3.7,6.3
435,0.435,-32.7,-15.0,3.1,3.0
436,0.436,-41.9,-15.9,-1.8,4.1
437,0.437,-28.0,-12.9,-1.3,6.3
438,0.438,-15.4,-11.9,-8.1,2.9
439,0.439,-8.5,-9.4,-10.9,-3.5
440,0.440,1.9,-8.7,-8.7,-8.3
441,0.441,3.7,-6.7,-6.7,-6.2
442,0.442,-1.4,-2.5,3.0,-10.2
443,0.443,-12.4,-4.0,1.5,-3.2
444,0.444,-7.6,-1.7,4.1,5.0
445,0.445,2.2,-3.1,5.2,-4.0
446,0.446,8.7,0.9,1.6,6.3
447,0.447,7.5,4.6,-1.7,10.2
448,0.448,-4.2,7.1,2.9,0.8
449,0.449,-18.4,9.3,-3.4,-2.9
450,0.450,-35.5,7.3,2.0,-2.2
451,0.451,-42.3,1.8,-3.2,-3.4
452,0.452,-31.9,-0.6,1.2,0.8
453,0.453,-22.4,1.6,-0.7,2.9
454,0.454,-48.3,3.5,-1.4,-6.8
455,0.455,-44.6,1.7,3.9,-5.8
456,0.456,-21.0,3.2,5.9,-2.5
457,0.457,0.4,5.7,1.2,0.4
458,0.458,36.7,10.6,6.5,3.1
459,0.459,61.3,17.8,1.3,3.8
460,0.460,47.8,16.8,0.6,4.4
461,0.461,60.1,7.1,-2.6,9.3
462,0.462,63.7,-9.8,-0.0,4.5
463,0.463,60.3,-3.1,2.4,3.8
464,0.464,57.3,-1.0,-0.8,2.1
465,0.465,37.8,-6.7,-2.9,3.5
466,0.466,20.1,-5.0,-5.5,2.1
467,0.467,4.1,-3.6,-7.3,4.7
468,0.468,-2.2,-2.3,-5.3,7.1
469,0.469,-19.3,-3.6,-1.3,1.9
470,0.470,-26.2,-7.1,-6.7,6.9
471,0.471,-32.4,-10.3,-1.7,3.5
472,0.472,-30.6,-5.6,4.1,0.5
473,0.473,-18.6,-6.5,0.0,1.9
474,0.474,-1.3,-7.3,-8.1,-3.6
475,0.475,1.0,-15.4,-15.5,-7.2
476,0.476,7.2,-22.9,-14.6,-0.0
477,0.477,12.9,-20.0,-1.4,0.9
478,0.478,14.5,-21.0,15.6,-1.8
479,0.479,16.0,-13.8,-0.5,3.8
480,0.480,9.0,-7.2,1.5,1.6
481,0.481,-10.6,-15.2,-0.3,1.0
482,0.482,-18.9,-5.7,8.2,2.8
483,0.483,-16.5,3.2,6.7,3.3
484,0.484,-9.7,4.3,5.3,4.8
485,0.485,-20.2,3.2,6.6,6.1
486,0.486,-18.4,9.8,7.8,6.6
487,0.487,-9.9,21.3,10.9,7.0
488,0.488,-2.1,22.7,6.1,8.1
489,0.489,-3.4,26.9,1.8,3.7
490,0.490,5.7,35.9,-2.2,0.5
491,0.491,16.3,30.0,2.9,1.2
492,0.492,9.3,20.4,4.9,-0.2
493,0.493,2.8,8.6,7.9,4.5
494,0.494,-0.6,10.1,16.1,4.1
495,0.495,2.6,3.0,8.0,5.8
496,0.496,3.7,1.7,-3.6,9.4
497,0.497,-5.9,-6.5,16.9,7.5
498,0.498,-12.2,-16.2,19.8,4.0
499,0.499,-13.2,-9.7,12.3,5.7
500,0.500,-24.8,-1.6,10.2,7.2
501,0.501,-20.1,5.8,8.3,5.5
502,0.502,-13.0,12.5,17.9,6.1
503,0.503,6.5,9.9,9.4,4.0
504,0.504,9.3,7.4,1.8,1.0
505,0.505,6.8,5.3,-16.6,1.7
506,0.506,4.6,0.7,-19.0,-1.7
507,0.507,10.8,-4.7,-30.3,-6.8
508,0.508,5.2,-8.3,1.2,-11.6
509,0.509,-3.3,-8.9,14.8,-1.4
510,0.510,-4.7,-11.9,-5.5,3.1
511,0.511,-11.7,-4.8,-9.1,2.1
512,0.512,-13.0,-0.0,1.2,-3.4
513,0.513,-9.5,2.6,-1.7,-2.0
514,0.514,0.1,0.2,1.1,3.2
515,0.515,9.2,-4.9,-1.2,2.7
516,0.516,15.0,-5.6,1.2,3.8
517,0.517,20.2,1.0,-0.8,2.0
518,0.518,32.7,-3.4,1.2,0.4
519,0.519,41.2,-2.6,6.5,2.5
520,0.520,33.3,-7.6,5.1,0.2
521,0.521,20.4,-12.1,-10.4,4.0
522,0.522,8.3,-15.1,-8.2,-0.5
523,0.523,-2.7,-15.5,1.4,1.7
524,0.524,-9.8,-12.0,6.7,1.5
525,0.525,-21.5,-12.4,-4.0,4.5
526,0.526,-20.0,-6.2,3.2,4.3
527,0.527,-10.1,3.5,-0.6,6.8
528,0.528,-8.9,4.9,-3.9,9.1
529,0.529,-7.7,10.8,-6.9,5.4
530,0.530,-6.7,14.1,-11.6,-2.4
531,0.531,-5.7,11.3,-10.6,-7.9
532,0.532,0.5,7.0,-9.7,-8.7
533,0.533,-3.6,4.7,-11.7,-5.5
534,0.534,-4.3,-0.3,-5.7,-9.7
535,0.535,-1.1,0.5,-4.8,-7.0
536,0.536,1.9,1.1,-2.6,-1.7
537,0.537,-3.1,-6.9,0.8,5.7
538,0.538,-2.5,-3.3,-5.7,1.1
539,0.539,-3.1,2.1,-1.2,2.2
540,0.540,0.6,1.2,-0.4,-3.2
541,0.541,-7.0,9.2,-1.0,0.5
542,0.542,-14.4,8.2,0.9,-2.6
543,0.543,-17.3,9.2,-0.8,-0.7
544,0.544,-30.6,10.0,-2.3,-3.2
545,0.545,-68.3,12.9,-0.2,-6.3
546,0.546,-51.2,15.3,-5.7,-4.8
547,0.547,-16.7,13.1,-5.0,-1.6
548,0.548,-1.9,3.2,-10.9,-6.1
549,0.549,20.6,-3.8,1.1,-11.4
550,0.550,32.8,-10.3,-0.6,-13.6
551,0.551,36.5,-9.1,7.1,-11.7
552,0.552,39.9,-1.7,11.2,-8.7
553,0.553,49.0,-4.5,-0.5,-6.1
554,0.554,51.8,-10.6,4.0,1.3
555,0.555,44.3,-1.7,13.8,4.3
556,0.556,23.6,-7.6,15.0,-2.5
557,0.557,15.3,-2.2,11.5,0.0
558,0.558,2.8,-3.1,8.2,7.1
559,0.559,-4.0,-4.0,9.1,6.0
560,0.560,-6.1,6.5,4.6,-2.2
561,0.561,-4.2,13.6,-1.1,-12.0
562,0.562,0.9,7.1,-4.8,-18.7
563,0.563,-3.7,6.0,-6.8,-5.9
564,0.564,-2.4,2.9,2.1,9.4
565,0.565,1.5,-3.8,11.1,-5.4
566,0.566,5.0,-4.7,2.8,-7.5
567,0.567,-0.2,-7.1,-2.6,-9.5
568,0.568,-14.7,-6.3,-5.6,-1.9
569,0.569,-20.9,-5.7,-10.1,-3.6
570,0.570,-26.5,-6.2,-6.2,-7.7
571,0.571,-24.8,1.9,-4.1,-2.2
572,0.572,-20.1,-3.9,-8.8,-3.5
573,0.573,-10.2,-7.0,-9.5,-4.8
574,0.574,-6.3,-6.1,-2.6,-4.3
575,0.575,1.9,-3.4,-7.5,1.0
576,0.576,-5.5,-15.5,-1.5,-3.0
577,0.577,-14.2,-17.1,10.4,-6.7
578,0.578,-10.6,-6.2,-8.8,0.7
579,0.579,-11.6,-4.8,-1.4,5.7
580,0.580,-4.7,-6.1,9.9,0.5
581,0.581,6.8,-0.2,11.8,1.0
582,0.582,11.5,-3.4,6.0,1.4
583,0.583,10.1,3.4,0.7,3.1
584,0.584,16.6,4.3,-4.1,12.6
585,0.585,10.7,9.9,-2.9,8.0
586,0.586,13.8,9.1,-6.9,6.3
587,0.587,24.4,11.0,-10.5,0.1
588,0.588,45.7,8.0,-13.8,-5.6
589,0.589,24.2,13.9,-7.2,-6.9
590,0.590,10.3,16.3,-1.2,-6.4
591,0.591,-7.3,21.3,-3.8,-1.2
592,0.592,-9.6,18.0,-0.3,9.3
593,0.593,-28.4,12.5,-10.4,1.2
594,0.594,-15.8,5.9,5.1,-3.4
595,0.595,-4.3,5.0,-5.5,10.6
596,0.596,-2.3,-3.9,3.8,12.0
597,0.597,-7.9,-21.6,12.2,6.6
598,0.598,-6.2,-29.2,13.6,4.7
599,0.599,-4.6,-17.8,12.1,0.2
600,0.600,-5.9,-11.7,2.8,3.7
601,0.601,0.7,-13.6,3.8,4.5
602,0.602,-0.4,-8.6,2.6,7.3
603,0.603,-1.4,-7.2,-0.5,8.0
604,0.604,-2.3,-8.6,3.8,8.6
605,0.605,0.4,-12.6,6.0,4.4
606,0.606,-2.0,-6.8,-0.8,7.7
607,0.607,-1.4,-1.5,-1.9,6.9
608,0.608,-4.7,5.2,-4.5,4.9
609,0.609,-2.9,11.3,1.9,-1.3
610,0.610,-1.4,8.8,-8.0,7.3
611,0.611,0.1,12.4,-17.3,3.7
612,0.612,0.5,6.4,-16.4,2.4
613,0.613,0.9,10.3,-4.9,-2.6
614,0.614,-2.5,6.6,-6.7,-7.2
615,0.615,-3.8,0.6,-5.5,4.7
616,0.616,-7.5,-5.1,6.0,-4.1
617,0.617,-5.0,-4.4,-5.2,0.4
618,0.618,-0.2,0.1,4.5,-1.1
619,0.619,1.7,1.9,-2.2,5.3
620,0.620,-3.8,2.3,3.5,-0.7
621,0.621,-1.7,-0.2,6.4,2.3
622,0.622,-2.4,5.5,9.2,9.0
623,0.623,-11.5,4.7,4.6,1.0
624,0.624,-28.4,2.4,3.6,6.2
625,0.625,-26.2,0.5,11.5,3.3
626,0.626,-28.3,3.4,1.8,4.1
627,0.627,-18.9,-0.3,0.4,-1.5
628,0.628,-10.4,-0.8,-0.8,-5.2
629,0.629,13.1,5.8,10.8,-0.6
630,0.630,36.6,-2.9,15.4,2.4
631,0.631,51.9,-11.0,2.5,3.9
632,0.632,54.5,-3.6,0.7,4.4
633,0.633,52.0,-6.4,-4.0,-2.2
634,0.634,49.7,1.6,-8.2,0.7
635,0.635,39.3,2.7,0.9,-1.9
636,0.636,18.3,7.6,2.0,0.5
637,0.637,4.4,6.8,1.0,1.3
638,0.638,-8.2,7.7,3.9,-5.8
639,0.639,-10.5,4.1,-9.3,-2.9
640,0.640,-25.2,0.9,-3.7,-0.2
641,0.641,-27.1,-4.4,-1.9,0.7
642,0.642,-15.1,-5.1,2.8,0.0
643,0.643,-10.5,-1.7,-7.0,4.7
644,0.644,-9.2,4.9,-3.1,3.0
645,0.645,-5.4,7.7,-4.1,-4.0
646,0.646,-7.2,5.3,-3.9,-2.4
647,0.647,-3.8,12.6,-0.7,-3.3
648,0.648,-11.2,7.8,-1.5,-0.5
649,0.649,-10.2,5.2,10.1,-1.2
650,0.650,-12.9,7.7,2.4,-1.8
651,0.651,-15.3,9.9,1.2,-3.7
652,0.652,-7.3,0.1,0.1,3.0
653,0.653,-4.2,-4.0,15.6,-10.1
654,0.654,-1.3,-7.8,13.6,-0.5
655,0.655,3.1,-15.9,8.2,-2.1
656,0.656,-8.9,-6.2,20.4,-3.5
657,0.657,-34.8,0.4,6.4,3.7
658,0.658,-45.9,1.6,4.8,7.7
659,0.659,-22.2,4.8,27.4,-2.8
660,0.660,-0.8,5.9,18.5,10.1
661,0.661,7.5,3.3,10.4,8.6
662,0.662,5.0,4.2,8.2,4.1
663,0.663,2.8,-0.8,6.1,5.6
664,0.664,9.1,-2.7,8.4,4.4
665,0.665,11.0,-10.4,10.5,3.4
666,0.666,23.2,-9.3,2.1,6.7
667,0.667,43.6,-2.5,-8.5,2.0
668,0.668,41.0,-1.6,-6.9,1.3
669,0.669,23.5,7.2,-8.0,2.2
670,0.670,-1.7,6.2,-11.2,-5.7
671,0.671,-4.9,7.2,-5.7,-6.6
672,0.672,-7.9,10.2,-4.5,-7.5
673,0.673,6.1,11.1,-8.6,-2.9
674,0.674,13.7,3.8,-7.6,-2.0
675,0.675,15.9,-2.9,-5.2,-2.6
676,0.676,22.2,-14.3,-14.9,-0.5
677,0.677,20.3,-12.8,-7.6,-7.0
678,0.678,25.5,-22.6,1.7,-2.4
679,0.679,20.8,-23.9,-1.6,1.7
680,0.680,5.2,-13.3,-11.0,-1.8
681,0.681,-9.4,-11.9,-12.0,-2.3
682,0.682,-14.9,-5.5,-17.7,-0.4
683,0.683,-9.7,-6.6,-16.4,-1.8
684,0.684,-4.9,-3.5,-11.4,-5.1
685,0.685,-9.0,-4.5,-12.1,-7.1
686,0.686,-7.7,-16.0,-3.1,-1.7
687,0.687,-13.5,-5.1,0.6,5.0
688,0.688,-10.4,-0.9,-2.4,4.3
689,0.689,-7.5,8.2,-7.0,2.0
690,0.690,-4.9,9.3,6.3,7.2
691,0.691,-8.9,1.9,12.1,4.0
692,0.692,-11.1,-1.0,10.6,7.1
693,0.693,-7.8,-0.2,-3.4,8.7
694,0.694,-9.5,2.2,-5.1,2.3
695,0.695,-6.9,5.7,-3.2,-2.0
696,0.696,-9.4,9.0,7.8,-7.5
697,0.697,-2.7,3.5,6.6,0.6
698,0.698,-3.6,4.1,-7.6,1.7
699,0.699,-2.7,8.6,9.7,-6.9
700,0.700,1.3,7.9,3.0,-3.4
701,0.701,-0.8,10.4,-7.4,-4.3
702,0.702,2.5,4.9,2.2,-3.3
703,0.703,-2.9,2.7,0.6,10.1
704,0.704,-0.6,3.3,5.4,0.7
705,0.705,-2.5,5.0,4.1,-7.8
706,0.706,-1.8,5.4,-2.3,0.0
707,0.707,-1.2,2.9,-3.4,1.5
708,0.708,3.4,2.4,-8.7,2.8
709,0.709,-0.8,2.0,-15.4,-0.5
710,0.710,4.2,-0.5,-2.1,-16.5
711,0.711,-0.3,0.4,7.4,-14.2
712,0.712,-2.0,-4.1,16.0,-7.8
713,0.713,-9.0,-0.8,11.3,1.7
714,0.714,-13.8,0.9,-7.3,3.4
715,0.715,-18.2,4.6,-4.8,1.9
716,0.716,-30.2,4.1,2.0,6.0
717,0.717,-28.5,1.0,8.2,-0.4
718,0.718,-17.6,1.4,9.9,-3.9
719,0.719,-7.8,-4.1,4.7,12.1
720,0.720,1.2,1.5,-3.2,18.9
721,0.721,18.8,5.1,-1.9,12.6
722,0.722,31.4,3.1,1.9,-4.5
723,0.723,42.8,-5.9,5.3,-6.8
724,0.724,53.2,-15.0,8.3,-0.5
725,0.725,47.6,-13.9,-6.4,-6.2
726,0.726,42.4,-6.6,8.1,-14.8
727,0.727,34.6,-3.7,-1.5,8.7
728,0.728,21.7,0.7,-20.6,5.2
729,0.729,6.1,6.3,-8.1,-10.1
730,0.730,-12.8,7.0,-1.4,-7.4
731,0.731,-20.5,2.4,-16.2,-5.0
732,0.732,-22.8,7.8,-6.9,-7.3
733,0.733,-29.2,1.3,1.6,-5.3
734,0.734,-27.5,-1.3,-6.4,-7.2
735,0.735,-15.5,-3.7,-2.4,-12.5
736,0.736,-14.1,-3.0,1.2,1.6
737,0.737,-7.1,-12.8,4.5,7.1
738,0.738,-3.3,-11.4,7.5,-5.0
739,0.739,2.5,-2.3,-1.4,2.6
740,0.740,-0.7,3.6,-12.2,3.9
741,0.741,-3.7,0.6,-2.4,-0.0
742,0.742,2.4,5.4,-9.1,8.1
743,0.743,9.6,9.8,-1.0,4.8
744,0.744,2.8,18.7,-6.5,-2.0
745,0.745,1.9,24.6,-7.6,-1.2
746,0.746,7.5,27.7,-6.9,1.1
747,0.747,-1.3,27.4,-12.4,-0.6
748,0.748,-8.0,26.4,-0.5,-2.9
749,0.749,-14.2,13.2,7.9,0.4
750,0.750,-2.2,-15.4,-0.0,-2.7
751,0.751,-3.9,-27.7,-15.8,-3.2
752,0.752,-5.4,-31.4,7.1,-3.8
753,0.753,-26.8,-28.0,-2.3,-4.3
754,0.754,-48.3,-12.7,5.9,-1.6
755,0.755,-34.4,-15.4,-1.9,2.3
756,0.756,-21.8,-12.9,0.2,-1.5
757,0.757,-5.8,-1.5,2.2,-2.1
758,0.758,4.6,-11.9,7.7,3.6
759,0.759,14.1,-17.5,-1.0,1.2
760,0.760,19.2,-12.4,6.7,1.8
761,0.761,17.7,-17.1,5.2,7.7
762,0.762,27.5,-7.3,1.3,8.4
763,0.763,34.0,7.0,0.1,4.7
764,0.764,35.1,12.5,5.3,0.1
765,0.765,25.5,10.8,8.1,-1.8
766,0.766,24.2,9.2,0.1,3.1
767,0.767,25.3,10.5,14.0,1.1
768,0.768,20.0,6.6,23.4,-0.7
769,0.769,5.5,7.7,-2.6,7.3
770,0.770,-9.1,10.7,-21.2,6.2
771,0.771,-22.3,17.4,9.1,-9.8
772,0.772,-30.9,11.1,21.3,-3.1
773,0.773,-19.9,0.6,17.6,7.3
774,0.774,-10.0,-0.8,0.7,12.9
775,0.775,-6.1,-7.3,-2.4,0.8
776,0.776,2.1,-15.6,0.3,2.3
777,0.777,1.1,-8.2,2.8,-1.9
778,0.778,-3.7,-1.5,9.6,-8.4
779,0.779,2.4,-4.2,11.7,-0.2
780,0.780,14.5,-5.0,9.8,9.4
781,0.781,12.7,-4.3,11.6,18.5
782,0.782,8.0,-5.0,16.2,5.6
783,0.783,6.6,-3.2,23.3,7.3
784,0.784,0.1,-4.8,19.6,5.8
785,0.785,-3.4,-5.3,6.7,7.2
786,0.786,-2.3,-1.4,-1.9,8.5
787,0.787,0.6,-3.0,-9.6,7.4
788,0.788,-5.6,-2.6,-22.4,4.3
789,0.789,-7.9,0.4,-6.8,-2.4
790,0.790,3.0,2.4,-8.8,-12.1
791,0.791,-11.1,2.6,-10.6,-5.5
792,0.792,-9.2,7.6,-12.2,-23.1
793,0.793,9.8,12.7,-10.6,-10.5
794,0.794,2.3,18.6,-20.4,-12.6
795,0.795,4.6,21.0,-8.6,2.0
796,0.796,-1.6,18.8,-7.0,3.9
797,0.797,-3.5,16.8,-16.8,-8.1
798,0.798,-5.1,11.4,2.8,-28.4
799,0.799,-0.5,0.5,5.6,-3.2
800,0.800,0.9,-10.4,3.2,13.7
801,0.801,2.2,-14.7,10.1,4.6
802,0.802,-1.2,-18.6,4.0,24.1
803,0.803,-2.2,-17.5,17.3,16.6
804,0.804,-5.1,-5.8,12.3,-13.3
805,0.805,-4.2,-7.3,-11.2,-9.1
806,0.806,-1.7,-14.4,-28.0,2.1
807,0.807,-1.0,-0.1,-18.7,5.5
808,0.808,-0.3,5.5,-4.7,-3.6
809,0.809,-0.8,0.4,-7.1,-0.8
810,0.810,0.8,2.0,-4.8,1.8
811,0.811,-1.6,11.9,-6.7,-0.4
812,0.812,-1.1,5.5,-4.8,6.0
813,0.813,-0.7,9.0,7.4,0.5
814,0.814,-1.7,8.0,-3.4,-1.1
815,0.815,-0.7,9.1,-13.3,3.6
816,0.816,2.1,1.2,1.1,-0.5
817,0.817,-0.4,6.6,14.5,3.4
818,0.818,1.3,11.5,19.7,7.0
819,0.819,-0.2,3.6,15.1,1.8
820,0.820,-0.4,4.7,16.5,4.7
821,0.821,2.7,-7.8,12.7,2.2
822,0.822,4.0,-9.4,-4.9,-5.0
823,0.823,-0.6,-7.8,-2.3,-5.8
824,0.824,-1.2,-9.1,-0.0,-3.1
825,0.825,-3.8,-5.2,-2.1,1.0
826,0.826,-1.4,-8.6,-7.7,-1.1
827,0.827,-2.7,-13.8,-2.5,-5.6
828,0.828,-1.5,-12.7,-7.1,-0.2
829,0.829,-2.5,-10.0,-2.9,4.9
830,0.830,-0.8,-4.3,-9.3,-4.9
831,0.831,-1.1,6.7,-3.4,-23.3
832,0.832,0.8,8.3,-6.6,-10.7
833,0.833,1.5,18.3,-1.7,5.5
834,0.834,2.1,17.1,11.6,3.4
835,0.835,1.5,8.9,9.7,1.6
836,0.836,2.6,1.6,11.4,6.8
837,0.837,3.7,14.3,12.9,8.4
838,0.838,6.1,16.0,-2.8,15.5
839,0.839,2.4,11.4,7.6,1.2
840,0.840,2.8,4.4,-5.6,3.1
841,0.841,0.7,-4.6,-7.4,1.4
842,0.842,2.6,-3.4,6.7,-12.7
843,0.843,2.9,2.0,1.1,-3.3
844,0.844,2.0,-4.7,6.2,8.8
845,0.845,0.5,-14.4,7.6,7.2
846,0.846,0.2,-7.8,-8.0,5.9
847,0.847,-2.0,-11.3,-1.8,-3.2
848,0.848,-2.3,-6.1,0.8,-6.4
849,0.849,-0.8,1.3,-8.7,6.5
850,0.850,0.5,-3.5,3.3,-2.1
851,0.851,-3.2,-9.7,4.7,-3.6
852,0.852,-0.5,-7.3,-2.4,3.5
853,0.853,-5.0,-0.7,14.5,-10.8
854,0.854,-2.1,1.9,-1.6,-5.2
855,0.855,1.6,7.6,-20.5,6.7
856,0.856,-0.8,-1.9,-8.0,2.0
857,0.857,-3.0,-11.0,-5.9,6.1
858,0.858,1.5,-9.8,-8.1,-3.0
859,0.859,2.1,-4.5,-21.5,-4.2
860,0.860,-1.5,-3.5,-13.0,-11.7
861,0.861,-4.0,-2.7,-11.6,-12.7
862,0.862,0.1,-0.2,-4.7,-6.7
863,0.863,1.6,-11.1,14.6,-6.1
864,0.864,2.1,-6.5,-5.0,4.7
865,0.865,1.8,-2.3,-12.7,-0.2
866,0.866,0.6,1.5,-1.5,-4.6
867,0.867,1.7,2.7,25.5,-3.6
868,0.868,1.4,8.0,-0.6,-2.7
869,0.869,4.2,7.0,-11.0,-10.4
870,0.870,-1.2,2.5,-2.1,-9.8
871,0.871,-0.3,6.5,-5.1,-4.0
872,0.872,3.4,2.9,-13.0,1.2
873,0.873,0.2,-7.1,-1.8,2.9
874,0.874,2.0,-14.1,4.1,-7.4
875,0.875,1.6,-7.7,-1.9,-6.6
876,0.876,0.2,-4.2,-4.0,-0.7
877,0.877,0.7,-5.2,-6.0,-4.8
878,0.878,1.9,1.6,-10.6,-6.6
879,0.879,2.3,4.2,-4.5,-10.3
880,0.880,4.7,3.4,1.0,-13.7
881,0.881,4.5,7.1,-6.9,-7.2
882,0.882,4.3,5.2,-8.2,4.6
883,0.883,6.0,7.0,-2.4,-4.7
884,0.884,2.8,5.5,1.2,-13.2
885,0.885,-1.7,6.0,-5.7,-6.8
886,0.886,4.9,12.7,-19.3,-6.2
887,0.887,2.3,11.8,8.9,-12.7
888,0.888,-1.6,14.5,-3.6,-8.0
889,0.889,-2.2,4.1,7.3,-9.5
890,0.890,2.5,5.5,3.8,1.5
891,0.891,3.1,1.7,6.7,-0.3
892,0.892,3.7,-1.7,-1.6,-10.5
893,0.893,-1.8,1.4,-9.2,-6.8
894,0.894,-1.1,4.4,-2.3,-12.8
895,0.895,-0.5,3.5,8.3,-9.7
896,0.896,-3.6,-2.0,10.2,-12.4
897,0.897,-4.3,-1.3,-12.1,-13.1
898,0.898,-2.0,0.7,-2.8,-15.3
899,0.899,-1.0,2.5,-5.2,-14.1
900,0.900,-0.8,4.1,-2.4,-3.8
901,0.901,-1.4,-1.3,4.8,-7.3
902,0.902,-6.7,-2.0,-13.6,-2.7
903,0.903,-4.7,-2.7,4.5,-3.0
904,0.904,-8.3,-1.0,16.6,-5.1
905,0.905,-10.2,-4.7,15.1,4.7
906,0.906,-6.7,-0.2,6.3,7.0
907,0.907,-9.4,5.1,15.6,5.2
908,0.908,-6.6,4.3,14.8,13.3
909,0.909,-9.5,1.0,11.4,20.9
910,0.910,-6.4,-4.4,21.3,26.4
911,0.911,-3.6,-11.0,23.3,37.3
912,0.912,-5.0,-3.1,31.7,40.2
913,0.913,-4.2,2.1,33.6,47.6
914,0.914,-7.4,-0.9,33.7,48.2
915,0.915,-6.4,-8.8,27.5,64.3
916,0.916,-6.9,-5.7,39.2,63.9
917,0.917,-8.0,4.9,38.9,63.7
918,0.918,-5.5,6.3,36.1,67.0
919,0.919,-11.1,7.5,43.0,67.1
920,0.920,-8.8,6.3,45.1,81.6
921,0.921,-6.8,3.1,47.1,88.4
922,0.922,-8.8,-3.7,45.5,100.9
923,0.923,-4.8,-11.7,45.8,115.4
924,0.924,-5.4,-23.5,57.7,122.0
925,0.925,-5.1,-28.2,57.2,134.4
926,0.926,-3.9,-24.1,51.0,140.1
927,0.927,-3.6,-4.7,45.4,134.9
928,0.928,1.7,14.6,42.8,118.5
929,0.929,12.1,2.0,33.9,91.8
930,0.930,10.6,-4.9,22.9,67.0
931,0.931,9.2,-2.9,9.5,44.4
932,0.932,10.2,-1.2,4.4,23.8
933,0.933,9.1,-16.9,-3.7,10.8
934,0.934,2.3,-19.1,-7.9,-1.2
935,0.935,-11.0,-13.6,-23.2,-16.7
936,0.936,-39.5,-1.6,-50.1,-30.8
937,0.937,-60.1,-0.2,-61.0,-59.0
938,0.938,-41.6,1.1,-57.5,-95.6
939,0.939,-18.0,-0.3,-66.6,-120.3
940,0.940,9.6,-6.3,-80.5,-133.8
941,0.941,28.2,-9.6,-88.1,-138.0
942,0.942,45.1,-10.7,-81.5,-149.3
943,0.943,54.3,-11.7,-67.1,-159.8
944,0.944,73.8,-7.9,-50.3,-169.5
945,0.945,86.4,-1.5,-57.6,-167.4
946,0.946,93.3,-2.5,-51.7,-160.6
947,0.947,83.0,3.0,-65.5,-163.7
948,0.948,62.2,9.4,-64.4,-170.8
949,0.949,44.4,19.1,-67.5,-182.0
950,0.950,30.6,32.2,-69.7,-181.3
951,0.951,18.1,41.6,-71.8,-180.8
952,0.952,-2.5,36.3,-71.3,-177.5
953,0.953,-27.5,31.5,-68.7,-185.9
954,0.954,-23.9,27.2,-66.5,-173.1
955,0.955,-26.8,25.8,-62.6,-149.9
956,0.956,-29.4,10.4,-55.6,-114.4
957,0.957,-36.7,4.0,-53.4,-91.3
958,0.958,-29.7,-5.6,-53.5,-70.5
959,0.959,-19.0,-4.0,-53.7,-51.9
960,0.960,-13.2,10.0,-47.5,-27.8
961,0.961,-14.6,8.0,-36.0,-12.8
962,0.962,-12.9,-4.1,-21.6,0.6
963,0.963,-22.5,-12.0,-16.5,29.4
964,0.964,-23.5,-25.0,-8.1,47.9
965,0.965,-22.1,-23.3,2.7,34.8
966,0.966,-20.8,-12.5,3.1,63.2
967,0.967,-25.4,-8.3,-2.3,65.3
968,0.968,-26.0,-7.0,-4.7,59.6
969,0.969,-23.3,-8.1,2.3,60.9
970,0.970,-15.1,3.7,15.0,74.2
971,0.971,-3.1,5.3,19.5,74.9
972,0.972,1.8,-7.5,20.0,80.4
973,0.973,-2.1,-12.6,42.4,85.3
974,0.974,-10.9,-17.2,64.9,85.4
975,0.975,-4.8,1.4,66.8,112.0
976,0.976,-1.5,-1.0,68.5,122.5
977,0.977,3.6,-3.1,70.0,116.9
978,0.978,8.2,-5.1,80.4,132.0
979,0.979,20.5,4.5,94.1,133.3
980,0.980,15.6,9.7,106.4,112.2
981,0.981,11.1,11.4,89.9,118.1
982,0.982,7.1,1.6,87.0,118.7
983,0.983,-1.7,-10.0,88.1,123.5
984,0.984,-7.4,-8.3,85.7,120.3
985,0.985,8.7,-1.1,92.8,107.0
986,0.986,15.6,0.4,85.2,98.0
987,0.987,17.8,4.0,70.3,92.8
988,0.988,8.4,5.2,60.4,85.4
989,0.989,-0.1,8.3,54.9,74.0
990,0.990,-10.9,11.1,46.8,71.9
991,0.991,-12.1,15.2,48.0,62.3
992,0.992,-13.3,20.5,38.8,53.8
993,0.993,-4.9,17.3,32.9,39.7
994,0.994,2.5,8.5,23.3,26.4
995,0.995,-0.2,2.2,14.4,31.6
996,0.996,4.3,1.2,11.2,8.3
997,0.997,1.9,4.5,-2.4,5.3
998,0.998,2.6,3.7,-11.5,-9.5
999,0.999,4.5,1.2,-12.8,-11.6
1000,1.000,1.4,-5.9,-13.8,-23.4
1001,1.001,-3.6,-2.8,-17.4,-24.7
1002,1.002,-4.3,-0.0,-28.5,-21.6
1003,1.003,-7.4,0.9,-29.4,-29.9
1004,1.004,-8.1,-2.6,-35.7,-44.2
1005,1.005,-5.8,-1.8,-36.3,-44.9
1006,1.006,-5.5,7.3,-32.0,-56.7
1007,1.007,-4.5,11.2,-36.5,-39.6
1008,1.008,-3.6,12.3,-36.6,-44.2
1009,1.009,-7.4,15.5,-40.1,-52.0
1010,1.010,-7.0,18.4,-36.7,-51.9
1011,1.011,-1.4,10.5,-35.1,-54.8
1012,1.012,-3.9,-5.4,-32.2,-48.8
1013,1.013,-1.8,-16.9,-34.2,-43.2
1014,1.014,1.3,-14.7,-29.5,-42.5
1015,1.015,0.7,-20.4,-27.1,-41.7
1016,1.016,0.1,-35.9,-23.9,-37.0
1017,1.017,-0.5,-33.8,-23.4,-34.4
1018,1.018,6.1,-31.8,-27.9,-33.5
1019,1.019,1.2,-30.0,-27.8,-31.1
1020,1.020,3.7,-19.1,-15.9,-27.6
1021,1.021,4.5,-11.9,2.2,-20.6
1022,1.022,5.1,-10.6,-8.4,-18.4
1023,1.023,8.4,-9.5,-13.8,-18.9
1024,1.024,1.7,-4.2,-7.3,-14.5
1025,1.025,6.1,-3.3,-8.2,-15.8
1026,1.026,5.2,1.1,-2.8,-12.1
1027,1.027,0.1,5.1,2.1,-6.0
1028,1.028,-1.8,14.5,-6.3,-1.6
1029,1.029,-0.1,13.1,-6.8,-9.5
1030,1.030,0.4,7.2,-9.3,-12.4
1031,1.031,-2.2,1.9,-5.9,-10.4
1032,1.032,-0.9,4.8,-8.1,-12.8
1033,1.033,4.3,-3.2,-10.1,-9.2
1034,1.034,7.8,-10.6,-9.1,-9.4
1035,1.035,8.4,-1.9,-5.5,-17.7
1036,1.036,2.9,1.5,-3.5,-11.4
1037,1.037,2.1,4.6,-1.8,-3.7
1038,1.038,0.1,9.4,3.8,-0.5
1039,1.039,-1.7,6.7,1.7,-2.9
1040,1.040,-3.3,4.3,-1.6,-5.1
1041,1.041,-0.9,3.6,-2.1,-5.7
1042,1.042,-0.6,10.8,-1.7,-2.4
1043,1.043,-4.3,5.9,-3.2,0.5
1044,1.044,-3.9,5.0,-2.9,-3.2
1045,1.045,-0.9,7.4,-4.2,-4.8
1046,1.046,3.6,5.2,0.3,-4.5
1047,1.047,1.9,7.1,8.8,-4.3
1048,1.048,-0.8,11.2,0.4,0.9
1049,1.049,2.6,8.4,1.3,-3.3
1050,1.050,1.0,-11.9,-1.1,-1.8
1051,1.051,1.4,-4.5,1.6,2.9
1052,1.052,0.1,2.8,-1.3,3.3
1053,1.053,0.5,5.7,4.1,5.9
1054,1.054,3.5,8.4,11.9,0.7
1055,1.055,1.5,14.0,14.8,4.9
1056,1.056,-1.0,17.6,11.6,7.5
1057,1.057,4.0,7.7,10.5,8.6
1058,1.058,6.2,-10.9,9.5,6.8
1059,1.059,9.5,-13.4,12.9,6.1
1060,1.060,5.3,-2.0,12.0,0.4
1061,1.061,0.5,0.0,7.6,3.6
1062,1.062,2.4,-5.7,10.1,2.6
1063,1.063,-1.7,-4.0,4.4,2.9
1064,1.064,-1.2,-5.6,5.0,5.1
1065,1.065,0.2,-9.8,4.1,3.4
1066,1.066,-1.9,-29.3,3.4,1.8
1067,1.067,-2.3,-32.0,-4.8,2.6
1068,1.068,-0.5,-4.1,-8.4,2.0
1069,1.069,-0.8,-0.4,7.4,3.4
1070,1.070,-2.2,3.0,-4.3,2.3
1071,1.071,-4.7,24.5,-6.5,2.8
1072,1.072,-2.4,21.9,-4.8,1.8
1073,1.073,-4.4,29.5,-6.6,-0.9
1074,1.074,-0.2,36.5,-8.2,1.1
1075,1.075,-3.2,34.5,-12.5,0.1
1076,1.076,-6.9,25.1,-13.9,-4.4
1077,1.077,-5.4,13.1,-8.2,-0.4
1078,1.078,-6.7,2.3,1.4,2.0
1079,1.079,-0.6,-4.7,-2.6,-0.7
1080,1.080,2.0,-8.5,3.1,4.8
1081,1.081,7.6,-16.6,6.2,5.4
1082,1.082,8.4,-19.7,7.0,5.9
1083,1.083,5.1,-18.7,6.0,6.3
1084,1.084,9.3,-19.5,5.1,9.0
1085,1.085,8.8,-20.3,4.3,7.3
1086,1.086,3.3,-10.9,-1.7,0.6
1087,1.087,5.4,-1.8,3.8,3.1
1088,1.088,2.1,-0.6,3.0,-2.7
1089,1.089,-0.9,-14.5,3.5,3.7
1090,1.090,-4.6,-20.1,-0.8,13.3
1091,1.091,-5.1,-8.1,0.7,1.4
1092,1.092,-10.0,-6.5,4.0,2.8
1093,1.093,-13.3,-2.3,1.7,-1.5
1094,1.094,-16.3,-1.1,-2.1,-0.3
1095,1.095,-9.2,11.9,-4.6,-1.6
1096,1.096,-4.4,13.5,-11.3,-4.8
1097,1.097,5.3,8.9,-22.1,-5.8
1098,1.098,-1.3,7.5,-6.5,-10.3
1099,1.099,2.2,1.0,8.1,-9.6
1100,1.100,3.2,-7.2,6.1,1.3
1101,1.101,-3.6,-23.2,4.4,2.8
1102,1.102,-1.0,-21.0,2.9,1.4
1103,1.103,1.4,-6.4,7.0,5.3
1104,1.104,-2.2,10.7,8.3,11.1
1105,1.105,2.3,8.5,2.4,8.0
1106,1.106,4.0,14.7,1.4,5.2
1107,1.107,3.5,16.5,2.3,4.3
1108,1.108,1.0,21.6,3.2,-1.2
1109,1.109,-0.4,23.0,4.0,2.4
1110,1.110,-4.1,21.6,0.3,0.6
1111,1.111,-1.7,7.3,3.6,3.6
1112,1.112,2.3,-13.7,-0.6,8.6
1113,1.113,-3.7,-16.5,-6.5,-1.2
1114,1.114,-1.3,-14.0,-5.7,0.3
1115,1.115,2.3,-16.4,-3.6,-0.9
1116,1.116,5.5,-18.5,-2.9,-4.2
1117,1.117,6.1,-16.7,6.1,-0.9
1118,1.118,5.6,-18.5,7.4,6.0
1119,1.119,8.1,-10.7,1.5,8.8
1120,1.120,7.6,-12.1,4.7,0.1
1121,1.121,8.0,-8.3,-5.9,3.8
1122,1.122,4.7,-4.8,4.0,2.9
1123,1.123,3.4,4.8,0.2,0.3
1124,1.124,1.3,3.5,-0.9,3.1
1125,1.125,0.3,9.4,0.2,-2.3
1126,1.126,1.2,14.6,3.2,3.0
1127,1.127,-3.3,11.7,2.4,7.9
1128,1.128,-7.8,9.0,6.4,-0.9
1129,1.129,-3.6,9.7,1.5,3.2
1130,1.130,-8.4,8.9,-1.7,11.7
1131,1.131,-3.8,8.2,3.7,8.8
1132,1.132,1.7,14.7,3.1,10.1
1133,1.133,-0.4,19.1,1.3,11.3
1134,1.134,5.5,11.8,4.4,6.0
1135,1.135,3.1,3.0,10.4,1.2
1136,1.136,3.9,6.4,1.7,-1.8
1137,1.137,5.8,9.5,14.8,-3.2
1138,1.138,-2.0,8.5,16.5,4.2
1139,1.139,-3.1,4.1,12.0,9.3
1140,1.140,-2.2,1.7,10.7,5.2
1141,1.141,-3.2,-7.8,4.3,11.2
1142,1.142,-2.4,-9.1,5.5,4.9
1143,1.143,-6.0,-5.6,-8.2,-1.0
1144,1.144,-4.0,-2.4,-6.3,0.2
1145,1.145,-2.1,-1.5,-1.0,-10.4
1146,1.146,2.9,3.0,-5.6,-2.3
1147,1.147,1.0,-9.0,-1.3,5.1
1148,1.148,4.1,-17.6,-2.5,6.7
1149,1.149,2.6,-16.0,-12.9,1.2
1150,1.150,2.2,-11.9,-11.4,-3.8
1151,1.151,4.0,-9.8,-7.0,-5.3
1152,1.152,9.9,-11.1,-10.7,-6.0
1153,1.153,9.1,-5.3,-11.7,-1.3
1154,1.154,6.9,6.5,-8.5,-3.4
1155,1.155,3.6,11.2,-3.6,-3.8
1156,1.156,8.9,15.4,4.5,-6.8
1157,1.157,6.7,1.1,5.6,0.0
1158,1.158,3.4,3.0,-1.1,6.5
1159,1.159,-2.0,4.7,-1.9,4.3
1160,1.160,-2.8,9.4,-1.0,-0.5
1161,1.161,-6.1,10.8,-0.2,-1.0
1162,1.162,-7.8,6.9,0.5,-1.3
1163,1.163,-7.4,1.0,1.1,-3.8
1164,1.164,-11.9,-4.3,-0.3,-3.1
1165,1.165,-16.1,-3.4,-0.8,-5.1
1166,1.166,-10.1,-4.3,-2.0,-7.0
1167,1.167,-1.3,-3.5,-2.4,-10.2
1168,1.168,6.8,-5.7,-2.7,-9.7
1169,1.169,7.9,-7.6,-7.1,-8.3
1170,1.170,6.9,-7.0,-16.1,-6.5
1171,1.171,2.4,-2.0,-4.3,-4.1
1172,1.172,8.0,-2.6,9.8,-4.3
1173,1.173,1.4,-2.0,4.1,-0.7
1174,1.174,-1.3,-0.4,2.4,-2.2
1175,1.175,-13.4,0.1,0.8,-2.6
1176,1.176,-35.9,1.5,2.2,3.5
1177,1.177,-26.7,-0.5,0.8,-1.0
1178,1.178,-29.5,1.3,1.9,-5.1
1179,1.179,-27.1,3.0,2.9,-4.4
1180,1.180,-11.0,3.9,-2.0,-2.6
1181,1.181,7.8,4.7,2.4,-5.7
1182,1.182,15.3,0.9,-8.1,-4.3
1183,1.183,17.5,0.4,-6.8,0.0
1184,1.184,19.6,0.9,2.2,-5.5
1185,1.185,32.8,1.3,-1.4,-5.0
1186,1.186,31.1,-4.9,1.7,-9.8
1187,1.187,35.7,-0.4,6.4,-16.6
1188,1.188,34.3,-4.5,5.4,-3.6
1189,1.189,17.4,-8.0,6.1,5.6
1190,1.190,1.3,-9.9,5.3,-3.2
1191,1.191,-21.8,-4.5,-4.7,-2.0
1192,1.192,-55.6,-0.9,-20.5,-3.6
1193,1.193,-51.1,-2.7,-6.0,-7.8
1194,1.194,-47.0,3.9,3.4,-7.0
1195,1.195,-28.5,1.3,-8.8,-2.0
1196,1.196,-11.6,0.5,-7.4,-1.4
1197,1.197,-2.4,10.0,2.3,-11.4
1198,1.198,5.9,11.3,-1.7,-2.7
1199,1.199,13.5,7.9,-5.3,-1.9
1200,1.200,20.3,11.1,-2.3,-3.4
1201,1.201,26.7,12.1,2.3,1.1
1202,1.202,36.2,7.7,6.6,6.9
1203,1.203,38.0,0.5,4.1,2.5
1204,1.204,30.3,3.4,0.3,2.8
1205,1.205,23.2,-1.0,-0.4,1.8
1206,1.206,22.0,-3.3,-2.3,3.1
1207,1.207,16.2,-5.4,-5.1,4.3
1208,1.208,2.3,-7.3,1.3,1.4
1209,1.209,-7.1,-4.3,2.1,4.1
1210,1.210,-8.7,-1.7,6.0,3.3
1211,1.211,-4.0,4.9,-5.1,2.5
1212,1.212,-8.1,5.8,2.6,-2.9
1213,1.213,-6.8,8.2,3.9,4.7
1214,1.214,-3.3,11.8,5.0,7.5
1215,1.215,-4.3,8.5,3.8,6.1
1216,1.216,0.6,-0.5,6.8,4.9
1217,1.217,-0.2,-7.0,11.6,3.7
1218,1.218,-0.9,-12.8,-0.0,8.4
1219,1.219,1.4,-16.0,-11.0,8.7
1220,1.220,-3.0,-13.1,-1.2,6.6
1221,1.221,-11.9,-15.7,18.2,2.5
1222,1.222,-5.3,-11.7,15.4,5.7
1223,1.223,0.6,-6.7,2.7,7.5
1224,1.224,-6.7,1.9,0.4,4.4
1225,1.225,-3.8,5.3,2.4,4.4
1226,1.226,-1.1,4.3,0.5,1.1
1227,1.227,-0.3,7.1,-1.3,2.0
1228,1.228,-2.5,8.0,0.2,-0.8
1229,1.229,-0.6,20.0,-1.2,4.0
1230,1.230,-1.2,25.2,-5.2,5.9
1231,1.231,3.7,20.5,-1.8,1.1
1232,1.232,4.4,21.8,-2.9,0.3
1233,1.233,-0.9,2.3,-7.7,0.5
1234,1.234,-4.5,-6.0,-6.9,-1.1
1235,1.235,-2.6,-13.6,5.1,-8.0
1236,1.236,0.4,-15.9,-0.1,2.5
1237,1.237,-0.1,-26.4,-1.6,1.0
1238,1.238,3.4,-32.1,-0.3,2.1
1239,1.239,-0.6,-27.0,1.0,0.8
1240,1.240,-1.2,-22.4,2.1,6.0
1241,1.241,6.2,-15.4,-5.4,-2.8
1242,1.242,-7.7,-11.6,-0.6,0.5
1243,1.243,-17.3,-10.5,3.8,-0.6
1244,1.244,-26.0,-5.3,6.2,2.2
1245,1.245,-21.4,1.4,2.6,6.5
1246,1.246,-0.1,7.5,7.2,4.1
1247,1.247,3.0,8.3,10.1,6.2
1248,1.248,0.2,1.6,2.0,5.5
1249,1.249,-22.6,11.3,-6.2,3.7
1250,1.250,-25.7,17.7,-0.9,0.0
1251,1.251,-11.8,11.8,-3.8,0.5
1252,1.252,-0.3,6.9,0.7,5.6
1253,1.253,12.3,-2.8,-2.0,2.6
1254,1.254,14.6,-9.3,-7.7,-1.9
1255,1.255,12.5,1.2,-7.0,-2.4
1256,1.256,6.8,13.9,-1.0,-0.9
1257,1.257,-1.8,12.2,4.6,0.6
1258,1.258,-6.5,7.4,3.8,1.9
1259,1.259,0.5,14.4,0.5,8.1
1260,1.260,12.2,7.8,1.1,0.2
1261,1.261,10.6,4.3,-1.6,-2.9
1262,1.262,6.4,5.3,-0.2,-7.7
1263,1.263,-0.2,-3.5,2.0,3.9
1264,1.264,-1.3,-9.4,-0.0,2.4
1265,1.265,-17.3,-8.4,-1.8,-4.5
1266,1.266,-33.4,2.2,-4.1,-0.6
1267,1.267,-18.8,0.8,-8.6,-1.6
1268,1.268,-17.0,-3.1,-1.4,8.1
1269,1.269,-8.4,0.3,-6.3,1.7
1270,1.270,15.2,1.2,-3.7,-4.0
1271,1.271,25.3,0.2,0.3,-2.9
1272,1.272,28.3,4.6,1.0,2.0
1273,1.273,25.6,5.3,3.0,6.6
1274,1.274,28.1,4.6,2.4,5.9
1275,1.275,34.9,4.0,2.8,6.7
1276,1.276,24.5,-0.2,2.3,0.9
1277,1.277,26.4,-2.8,-0.7,3.4
1278,1.278,31.6,-6.2,3.7,-0.0
1279,1.279,17.5,-3.1,0.8,-3.2
1280,1.280,8.0,-1.0,-3.0,-0.1
1281,1.281,2.9,1.5,-4.4,-1.5
1282,1.282,-1.7,-0.7,-4.8,-1.8
1283,1.283,-0.2,-0.3,0.5,-1.3
1284,1.284,-6.7,3.4,-4.6,-4.0
1285,1.285,-3.2,5.9,-0.0,-4.1
1286,1.286,-12.8,3.9,-1.8,-7.7
1287,1.287,-8.9,2.7,-0.3,-5.0
1288,1.288,1.7,-0.5,2.2,-3.6
1289,1.289,0.4,0.0,-4.5,-5.4
1290,1.290,-0.9,6.2,-7.3,-2.0
1291,1.291,0.3,5.4,-6.4,-2.3
1292,1.292,-13.5,-1.7,-0.8,-4.1
1293,1.293,-15.4,-2.6,-3.0,-4.3
1294,1.294,0.2,1.9,3.0,-0.5
1295,1.295,2.3,-0.3,2.2,-0.9
1296,1.296,11.8,-2.4,10.2,-0.3
1297,1.297,3.3,-4.1,9.2,4.3
1298,1.298,-7.6,1.4,8.2,4.9
1299,1.299,-20.5,0.9,5.6,6.6
1300,1.300,-29.0,-4.9,9.7,4.2
1301,1.301,-27.5,-0.7,9.0,6.4
1302,1.302,-14.6,7.5,10.9,6.9
1303,1.303,-9.4,10.8,6.8,1.6
1304,1.304,-4.7,6.1,0.9,4.1
1305,1.305,-6.0,3.6,1.7,-2.4
1306,1.306,-15.0,-1.9,-0.4,2.1
1307,1.307,-9.1,1.9,-2.2,3.0
1308,1.308,-1.7,9.3,-2.7,0.9
1309,1.309,-4.5,0.7,-6.3,4.3
1310,1.310,-3.6,-7.3,-3.8,-2.2
1311,1.311,-4.4,-6.1,1.2,-4.8
1312,1.312,-0.7,-7.0,-0.6,-3.9
1313,1.313,1.2,6.4,-7.1,-1.7
1314,1.314,1.8,8.4,-9.7,-4.9
1315,1.315,2.3,10.2,2.5,-6.6
1316,1.316,0.9,15.0,7.7,-5.0
1317,1.317,0.5,19.3,6.3,-1.5
1318,1.318,2.5,12.9,10.5,-1.9
1319,1.319,4.3,4.8,1.6,0.2
1320,1.320,4.0,3.9,-6.5,-2.2
1321,1.321,2.0,-2.8,-7.4,-5.2
1322,1.322,5.1,-7.1,-0.6,-4.0
1323,1.323,4.7,-7.8,-1.3,-1.5
1324,1.324,7.2,-9.9,-5.2,3.6
1325,1.325,2.8,-11.8,-0.0,-1.4
1326,1.326,3.3,-13.6,-0.6,-7.3
1327,1.327,1.7,-21.7,-4.6,-3.3
1328,1.328,1.2,-22.8,3.6,0.4
1329,1.329,3.3,-26.0,0.2,-5.6
1330,1.330,1.2,-27.0,-0.7,-3.2
1331,1.331,4.4,-22.7,0.3,-2.5
1332,1.332,5.5,-18.7,-0.5,-8.4
1333,1.333,9.1,-10.8,2.0,-9.3
1334,1.334,6.5,-9.8,-1.5,-4.2
1335,1.335,3.3,-3.2,1.9,-2.3
1336,1.336,2.9,4.7,6.1,-5.4
1337,1.337,5.3,14.2,3.5,0.5
1338,1.338,6.1,17.9,1.1,6.1
1339,1.339,4.1,21.2,4.2,2.5
1340,1.340,4.2,24.2,1.5,5.7
1341,1.341,7.9,25.1,-0.2,9.8
1342,1.342,10.4,15.2,4.9,1.7
1343,1.343,7.9,0.8,4.2,9.8
1344,1.344,10.0,-5.0,4.9,6.7
1345,1.345,11.2,-13.8,0.8,9.5
1346,1.346,7.9,-15.5,-1.8,6.8
1347,1.347,5.7,-8.6,-3.2,7.6
1348,1.348,5.3,-4.9,-6.2,8.3
1349,1.349,-0.2,-4.0,-4.2,3.7
1350,1.350,-5.9,-3.1,1.3,1.9
1351,1.351,-15.4,-4.2,5.3,-1.8
1352,1.352,-29.8,-8.8,-5.6,4.7
1353,1.353,-32.8,-8.8,-21.8,-3.7
1354,1.354,-15.7,-9.7,-14.0,-9.9
1355,1.355,0.4,-9.2,-4.2,-9.2
1356,1.356,2.5,-4.8,-5.5,-7.0
1357,1.357,4.3,-2.0,-6.6,-3.8
1358,1.358,2.7,-3.7,-7.7,-5.6
1359,1.359,-8.2,-6.4,-2.9,-8.2
1360,1.360,-9.5,-3.5,-0.3,-0.8
1361,1.361,-5.6,-4.1,-1.1,-1.9
1362,1.362,-9.0,-4.0,-4.8,0.9
1363,1.363,-16.3,-1.8,-9.3,0.0
1364,1.364,-7.5,-1.1,-6.4,-5.6
1365,1.365,-4.0,-0.9,-1.5,-9.2
1366,1.366,-4.9,-1.3,-3.5,-4.7
1367,1.367,-3.9,-0.8,-0.5,1.9
1368,1.368,2.3,-3.9,2.1,2.8
1369,1.369,6.4,-3.6,-5.4,0.4
1370,1.370,8.6,2.5,-8.5,-4.7
1371,1.371,8.1,13.9,-3.7,2.6
1372,1.372,11.1,18.5,9.5,-2.2
1373,1.373,11.6,19.8,3.9,4.0
1374,1.374,11.2,23.6,5.5,3.3
1375,1.375,10.8,24.7,7.0,6.9
1376,1.376,14.6,23.7,5.6,8.9
1377,1.377,17.1,24.6,1.7,10.7
1378,1.378,22.1,23.8,7.5,9.2
1379,1.379,18.8,18.2,8.5,7.8
1380,1.380,13.4,18.9,7.5,8.2
1381,1.381,6.9,13.0,4.8,6.3
1382,1.382,-4.5,9.1,8.7,8.8
1383,1.383,-2.9,4.0,6.5,7.2
1384,1.384,-4.2,-0.5,9.8,4.5
1385,1.385,-8.0,7.4,7.9,7.9
1386,1.386,-2.1,2.1,8.4,4.0
1387,1.387,-7.4,1.2,4.9,3.6
1388,1.388,-4.5,-3.0,7.9,5.1
1389,1.389,-5.4,-6.9,3.3,6.5
1390,1.390,-6.2,-1.7,-2.1,0.5
1391,1.391,-9.8,7.0,0.0,-5.6
1392,1.392,-7.9,-1.0,-4.6,-3.1
1393,1.393,-10.8,-2.0,-2.9,-3.7
1394,1.394,-6.0,-6.7,0.8,-3.0
1395,1.395,-2.7,-3.9,-6.7,-2.4
1396,1.396,0.2,-9.4,-9.9,-7.2
1397,1.397,2.8,-7.1,2.6,-10.4
1398,1.398,6.2,-5.1,-6.0,-6.1
1399,1.399,11.8,-9.2,-7.6,-12.0
1400,1.400,14.1,-5.3,-0.5,-9.5
1401,1.401,11.9,-5.7,-4.4,-5.9
1402,1.402,1.9,-4.3,-3.3,-9.1
1403,1.403,-11.1,-7.9,-2.3,-0.0
1404,1.404,-9.5,-0.4,4.5,3.9
1405,1.405,-11.1,7.1,1.8,7.4
1406,1.406,-4.1,11.9,2.6,2.2
1407,1.407,-8.1,7.5,4.8,7.1
1408,1.408,-9.3,0.3,6.8,6.3
1409,1.409,-19.0,-6.4,2.7,10.3
1410,1.410,-20.5,-7.3,-5.4,11.1
1411,1.411,-24.1,-11.4,-18.3,5.3
1412,1.412,-10.4,-22.3,-9.6,-5.1
1413,1.413,2.7,-30.2,-4.9,-6.4
1414,1.414,4.2,-26.0,2.2,-2.5
1415,1.415,8.7,-22.2,1.0,-1.3
1416,1.416,-1.3,-14.1,-0.0,-0.3
1417,1.417,-2.7,-8.8,-3.1,-1.2
1418,1.418,-6.3,-6.0,-3.9,-7.3
1419,1.419,-5.4,-5.2,-6.5,-6.4
1420,1.420,1.2,-9.2,-5.6,-5.7
1421,1.421,0.2,-9.9,-6.2,-8.9
1422,1.422,5.7,-4.0,2.5,-11.8
1423,1.423,7.7,6.4,8.5,-5.8
1424,1.424,-2.3,-3.5,13.9,3.0
1425,1.425,-6.6,-7.3,7.3,6.5
1426,1.426,7.5,-8.5,13.6,7.6
1427,1.427,9.2,-11.7,3.3,6.6
1428,1.428,3.9,0.8,7.6,4.0
1429,1.429,-0.9,9.3,6.5,0.1
1430,1.430,-16.7,20.1,12.5,3.7
1431,1.431,-10.7,21.4,7.4,-2.2
1432,1.432,-20.3,25.1,4.7,-1.4
1433,1.433,-11.9,23.8,3.9,-0.7
1434,1.434,2.0,18.3,6.5,-2.6
1435,1.435,7.5,5.6,0.1,-3.2
1436,1.436,9.1,-10.2,2.9,-10.4
1437,1.437,1.2,-12.4,3.8,-3.7
1438,1.438,5.2,-18.2,4.7,0.7
1439,1.439,3.8,-13.2,5.5,1.4
1440,1.440,7.2,-11.8,0.2,2.1
1441,1.441,1.8,-4.9,3.9,-2.6
1442,1.442,8.5,-6.3,6.0,0.3
1443,1.443,12.9,-5.3,3.1,0.7
1444,1.444,18.4,-12.8,1.7,2.0
1445,1.445,20.5,-8.1,1.4,0.6
1446,1.446,18.6,5.0,4.5,1.0
1447,1.447,19.1,6.7,6.6,6.3
1448,1.448,15.4,-2.0,1.3,8.6
1449,1.449,7.9,5.6,-5.8,4.9
1450,1.450,-6.0,15.3,-2.9,-1.2
1451,1.451,-4.1,13.8,-7.2,-0.5
1452,1.452,-5.8,10.1,-6.3,1.6
1453,1.453,-7.3,13.1,-9.8,-0.5
1454,1.454,1.3,25.2,-7.4,-5.6
1455,1.455,2.7,31.8,-9.3,-2.7
1456,1.456,9.1,34.4,-3.9,-8.8
1457,1.457,15.0,38.4,-3.1,-6.5
1458,1.458,16.0,31.7,-9.1,4.3
1459,1.459,18.9,18.4,-3.4,-3.7
1460,1.460,12.8,12.8,1.6,-10.9
1461,1.461,8.9,11.1,-3.0,8.5
1462,1.462,-1.9,0.2,1.2,16.6
1463,1.463,-6.3,4.4,-5.9,8.8
1464,1.464,-7.5,0.5,-7.0,6.4
1465,1.465,-6.1,-2.9,-6.1,-0.0
1466,1.466,-9.4,-6.0,-2.2,-9.7
1467,1.467,-3.9,-18.5,-4.5,-15.0
1468,1.468,-8.6,-40.9,-0.1,-7.5
1469,1.469,-12.8,-56.2,-0.9,-9.1
1470,1.470,-15.1,-42.2,-4.8,-0.3
1471,1.471,-11.3,-29.5,-5.5,-4.0
1472,1.472,-1.2,-27.1,-7.9,-1.1
1473,1.473,-2.3,-24.9,-7.8,-16.0
1474,1.474,-3.4,-11.5,-10.6,2.6
1475,1.475,-4.3,-2.8,-11.9,-0.3
1476,1.476,3.3,2.0,-16.7,-16.7
1477,1.477,8.3,9.2,-21.7,-10.8
1478,1.478,5.9,5.5,-13.1,-20.7
1479,1.479,8.5,6.7,-9.7,-16.1
1480,1.480,8.0,8.0,-1.9,-15.0
1481,1.481,1.0,11.0,-5.5,5.8
1482,1.482,-3.6,10.3,-7.0,14.3
1483,1.483,-14.9,12.9,-6.6,16.4
1484,1.484,-19.3,5.0,-4.7,23.2
1485,1.485,-9.2,-0.2,-6.0,6.3
1486,1.486,-5.1,-1.1,0.6,-9.1
1487,1.487,5.7,-1.9,1.0,-8.0
1488,1.488,-1.2,0.6,4.8,-0.3
1489,1.489,-17.9,-0.1,-1.4,-2.6
1490,1.490,-20.0,-0.7,0.2,0.8
1491,1.491,-0.9,-1.2,2.9,-9.0
1492,1.492,6.8,-2.7,-4.3,-1.5
1493,1.493,4.8,4.8,-7.5,-3.3
1494,1.494,7.0,14.5,-2.3,-14.6
1495,1.495,1.5,10.7,-3.5,-8.2
1496,1.496,6.8,21.3,-8.5,-7.4
1497,1.497,8.4,34.2,-10.6,-11.3
1498,1.498,9.9,46.3,-3.9,-19.0
1499,1.499,8.6,44.8,0.7,-14.4
1500,1.500,12.1,40.6,1.4,-6.5
1501,1.501,15.2,21.2,-7.6,-5.5
1502,1.502,22.0,7.4,-11.2,-6.3
1503,1.503,21.1,-5.2,4.7,-19.4
1504,1.504,21.9,-25.9,11.5,-13.4
1505,1.505,19.7,-39.7,1.0,-4.4
1506,1.506,16.4,-37.2,-0.7,-14.7
1507,1.507,7.4,-34.9,-2.3,-7.0
1508,1.508,-12.2,-32.8,-0.6,-7.5
1509,1.509,-42.9,-30.9,-4.5,-0.7
1510,1.510,-55.2,-25.8,4.9,1.4
1511,1.511,-44.2,-18.0,11.2,-0.3
1512,1.512,-27.4,-16.6,12.7,0.1
1513,1.513,-12.2,-12.8,6.5,8.8
1514,1.514,1.6,-11.6,16.7,3.6
1515,1.515,9.1,-8.4,23.9,14.9
1516,1.516,2.2,-7.5,30.4,20.3
1517,1.517,0.0,-6.6,36.4,23.2
1518,1.518,-9.5,-9.0,34.3,38.8
1519,1.519,-14.8,-8.3,41.3,42.4
1520,1.520,-13.3,-2.4,52.6,39.0
1521,1.521,-6.4,-3.3,46.4,51.8
1522,1.522,-10.3,1.8,43.5,55.0
1523,1.523,-13.9,1.1,45.6,63.3
1524,1.524,-2.2,-3.1,36.9,68.6
1525,1.525,-0.8,-0.4,39.1,73.7
1526,1.526,0.5,-3.9,39.0,78.4
1527,1.527,-8.7,-1.7,34.8,88.2
1528,1.528,-7.6,-2.1,34.8,95.4
1529,1.529,-0.3,-3.2,38.5,107.9
1530,1.530,2.6,1.9,37.1,128.2
1531,1.531,8.7,12.8,41.7,142.5
1532,1.532,1.3,11.3,43.3,151.0
1533,1.533,4.1,21.1,49.6,146.4
1534,1.534,-0.4,24.9,48.4,142.3
1535,1.535,1.9,23.7,43.3,121.3
1536,1.536,3.9,22.6,36.8,107.2
1537,1.537,-0.7,21.6,23.1,72.2
1538,1.538,-0.3,17.1,13.3,48.5
1539,1.539,-8.5,24.3,15.8,27.1
1540,1.540,2.0,27.1,7.8,15.7
1541,1.541,6.2,20.8,-2.5,5.4
1542,1.542,10.0,16.7,-23.4,-4.1
1543,1.543,11.2,8.5,-38.3,-31.3
1544,1.544,16.6,3.1,-57.4,-71.7
1545,1.545,21.4,0.2,-64.7,-98.8
1546,1.546,24.1,-0.8,-71.4,-123.4
1547,1.547,23.3,-3.2,-73.4,-163.9
1548,1.548,21.1,-14.2,-79.0,-180.4
1549,1.549,24.4,-18.9,-80.8,-175.8
1550,1.550,25.0,-14.9,-73.1,-189.7
1551,1.551,16.9,-16.2,-52.0,-202.5
1552,1.552,8.7,-22.2,-55.3,-192.1
1553,1.553,7.7,-17.0,-58.4,-182.8
1554,1.554,0.9,-18.0,-56.3,-180.6
1555,1.555,-4.6,-9.4,-60.4,-189.8
1556,1.556,-0.2,-6.9,-67.7,-193.6
1557,1.557,2.2,-7.7,-70.4,-192.4
1558,1.558,-2.8,-18.7,-69.2,-186.9
1559,1.559,-3.5,-23.4,-81.9,-190.4
1560,1.560,4.3,-22.0,-74.9,-197.5
1561,1.561,1.3,-20.8,-65.8,-183.5
1562,1.562,-7.4,-26.7,-62.8,-153.8
1563,1.563,-17.9,-25.6,-60.3,-106.1
1564,1.564,-22.0,-11.1,-58.1,-88.2
1565,1.565,-20.5,3.6,-58.1,-72.2
1566,1.566,-9.8,5.4,-49.4,-46.9
1567,1.567,6.0,7.1,-46.6,-24.2
1568,1.568,4.0,8.6,-29.9,5.1
1569,1.569,-1.5,18.5,-18.4,23.5
1570,1.570,0.3,25.1,-21.8,39.8
1571,1.571,-4.2,19.3,-16.6,47.7
1572,1.572,3.0,18.4,-8.3,48.5
1573,1.573,-3.3,27.2,-0.8,49.0
1574,1.574,-11.4,21.4,-3.5,59.3
1575,1.575,-12.3,9.8,-8.9,68.5
1576,1.576,-15.0,2.1,6.9,72.5
1577,1.577,-10.5,-1.9,26.4,72.1
1578,1.578,1.7,-0.5,28.0,81.9
1579,1.579,3.5,0.7,14.2,90.5
1580,1.580,5.1,-2.4,43.0,95.4
1581,1.581,18.1,10.3,70.6,102.3
1582,1.582,9.6,12.2,65.8,117.9
1583,1.583,11.2,13.8,74.9,123.3
1584,1.584,12.7,6.9,70.8,132.8
1585,1.585,11.5,8.3,78.1,128.7
1586,1.586,12.7,9.6,74.7,124.9
1587,1.587,13.9,4.5,76.0,128.1
1588,1.588,-0.6,11.4,68.9,124.7
1589,1.589,-23.6,17.7,69.9,121.6
1590,1.590,-45.0,26.7,67.5,121.2
1591,1.591,-42.2,16.3,65.3,104.3
1592,1.592,-39.7,-2.1,66.0,96.6
1593,1.593,-28.2,-9.5,79.7,97.2
1594,1.594,3.3,-20.9,84.8,104.6
1595,1.595,7.8,-6.1,75.7,92.6
1596,1.596,11.9,-4.1,61.2,81.8
1597,1.597,0.8,-2.3,59.1,74.5
1598,1.598,17.6,2.5,53.8,68.0
1599,1.599,26.8,-10.2,45.9,53.6
1600,1.600,18.5,-11.8,50.0,40.1
1601,1.601,15.9,-22.6,35.7,34.8
1602,1.602,22.6,-18.3,22.6,27.0
1603,1.603,20.4,-16.9,10.8,14.4
1604,1.604,22.2,-20.2,6.4,2.7
1605,1.605,3.1,-17.0,-8.8,-4.6
1606,1.606,-4.6,-4.2,-6.3,-25.2
1607,1.607,-11.5,-2.4,-4.0,-27.5
1608,1.608,-26.2,-0.7,-12.1,-23.8
1609,1.609,-28.2,15.1,-13.0,-20.2
1610,1.610,-30.0,21.4,-13.7,-25.8
1611,1.611,-19.2,12.1,-14.3,-30.8
1612,1.612,-12.2,7.1,-19.4,-34.9
1613,1.613,-18.9,2.6,-28.2,-35.0
1614,1.614,-10.8,9.8,-36.4,-38.0
1615,1.615,5.0,26.9,-38.9,-43.3
1616,1.616,16.3,24.8,-39.1,-40.2
1617,1.617,10.0,-2.2,-41.0,-39.4
1618,1.618,4.3,-20.6,-39.1,-38.6
1619,1.619,-7.8,-17.1,-38.9,-39.5
1620,1.620,-9.4,-7.9,-32.8,-42.0
1621,1.621,0.5,0.5,-28.5,-45.6
1622,1.622,4.2,-1.9,-26.9,-43.0
1623,1.623,12.3,-22.6,-27.4,-43.0
1624,1.624,13.3,-14.2,-25.0,-41.7
1625,1.625,6.4,-1.6,-25.3,-38.3
1626,1.626,5.5,0.7,-21.5,-32.1
1627,1.627,6.2,2.8,-24.5,-35.7
1628,1.628,8.3,4.6,-19.9,-36.2
1629,1.629,10.1,6.3,-19.4,-31.3
1630,1.630,5.9,1.6,-19.8,-26.7
1631,1.631,0.9,-5.5,-16.1,-27.9
1632,1.632,1.5,-22.5,-17.1,-25.0
1633,1.633,1.9,-15.7,-12.6,-26.7
1634,1.634,-6.2,-9.5,-10.4,-23.4
1635,1.635,-16.9,-11.4,-12.8,-16.7
1636,1.636,-4.2,-16.7,-6.8,-11.6
1637,1.637,4.3,-15.2,-11.3,-8.4
1638,1.638,5.8,-11.1,-11.4,-12.0
1639,1.639,7.1,3.1,-9.2,-16.5
1640,1.640,10.8,-6.5,-3.8,-7.6
1641,1.641,9.6,-4.9,-4.1,-10.1
1642,1.642,4.3,-0.4,-0.8,-18.2
1643,1.643,-0.6,-4.7,-3.2,-7.1
1644,1.644,3.8,-11.4,1.5,-2.4
1645,1.645,1.4,-3.3,3.4,-5.9
1646,1.646,0.7,6.1,-3.5,7.3
1647,1.647,-2.6,20.3,-4.4,2.4
1648,1.648,6.4,21.9,3.5,1.1
1649,1.649,10.2,23.5,15.2,2.5
1650,1.650,9.1,18.6,4.2,3.9
1651,1.651,8.1,17.1,5.5,-2.0
1652,1.652,1.3,2.6,-1.1,7.6
1653,1.653,-8.4,8.0,-9.5,11.3
1654,1.654,-20.2,6.1,2.0,-1.8
1655,1.655,-12.4,4.4,6.4,-3.7
1656,1.656,3.0,0.6,8.8,6.5
1657,1.657,7.1,-3.7,7.1,-1.5
1658,1.658,-2.0,0.0,3.0,-0.4
1659,1.659,6.2,-1.3,1.6,-7.2
1660,1.660,11.5,-4.5,4.5,-6.4
1661,1.661,14.4,-5.6,-0.6,-1.4
1662,1.662,3.0,-10.1,-0.0,-4.6
1663,1.663,-1.7,-11.0,0.5,-2.3
1664,1.664,-5.8,-10.4,6.8,-1.9
1665,1.665,-20.0,-9.8,3.8,-1.5
1666,1.666,-25.6,-2.1,1.1,2.7
1667,1.667,-23.8,3.1,1.5,0.6
1668,1.668,-22.2,13.7,1.8,1.7
1669,1.669,-6.5,14.9,3.3,5.9
1670,1.670,4.0,11.0,-1.9,8.5
1671,1.671,2.2,2.7,-4.1,3.2
1672,1.672,4.0,-9.1,4.7,-0.4
1673,1.673,8.7,-1.4,10.9,1.0
1674,1.674,4.6,2.7,-2.2,8.7
1675,1.675,8.5,-1.2,-4.2,9.5
1676,1.676,5.1,-2.3,-2.9,3.9
1677,1.677,6.2,5.0,-18.7,8.4
1678,1.678,11.1,9.8,12.5,5.4
1679,1.679,13.8,7.2,16.8,5.9
1680,1.680,11.4,3.2,-3.9,12.2
1681,1.681,4.9,-1.9,-0.4,2.2
1682,1.682,0.5,-2.6,2.8,3.2
1683,1.683,6.1,-0.8,5.7,6.4
1684,1.684,11.2,-3.5,2.9,0.9
1685,1.685,2.7,-4.0,0.2,3.5
1686,1.686,-0.8,-1.8,2.4,-2.9
1687,1.687,4.6,-1.4,-8.2,-3.9
1688,1.688,-2.1,-0.3,-6.5,-10.7
1689,1.689,-11.8,0.0,2.0,0.6
1690,1.690,-15.6,4.0,6.5,1.9
1691,1.691,-21.5,2.5,5.1,3.1
1692,1.692,-7.5,5.1,3.7,6.8
1693,1.693,-1.9,5.5,4.7,5.4
1694,1.694,3.2,8.4,3.6,8.4
1695,1.695,4.8,6.6,4.5,5.4
1696,1.696,6.2,7.0,5.3,2.6
1697,1.697,7.5,11.5,1.2,3.3
1698,1.698,6.3,20.2,-2.5,3.9
1699,1.699,9.5,16.8,7.4,0.5
1700,1.700,10.5,17.9,3.1,4.5
1701,1.701,4.3,9.2,1.8,2.9
1702,1.702,-6.1,5.7,7.6,-2.6
1703,1.703,-7.5,2.6,8.6,-2.0
1704,1.704,-3.6,-4.0,11.5,3.9
1705,1.705,-7.1,-6.7,-0.0,4.6
1706,1.706,-3.9,-2.6,-14.2,-2.0
1707,1.707,-14.6,-9.2,-8.6,-4.7
1708,1.708,-7.5,-15.3,-3.4,-2.3
1709,1.709,-1.0,-17.7,-4.9,-0.1
1710,1.710,0.2,-12.6,2.1,-3.4
1711,1.711,1.2,-19.8,-1.7,-0.4
1712,1.712,-3.6,-20.8,-2.8,1.1
1713,1.713,-1.0,-21.6,0.4,2.6
1714,1.714,-6.6,-17.5,-0.6,0.5
1715,1.715,-1.5,-8.0,3.9,0.2
1716,1.716,-4.9,-4.1,3.1,5.7
1717,1.717,-1.9,-2.9,3.9,3.4
1718,1.718,0.7,2.5,7.2,4.2
1719,1.719,-1.8,-0.3,4.3,5.0
1720,1.720,-2.1,-2.9,0.7,-0.3
1721,1.721,4.0,-6.8,4.2,-11.1
1722,1.722,4.9,-3.1,1.3,9.5
1723,1.723,4.1,1.5,0.1,12.4
1724,1.724,6.3,0.9,-2.3,10.1
1725,1.725,3.0,3.6,-3.9,3.5
1726,1.726,-1.2,2.2,-1.8,1.6
1727,1.727,0.4,3.5,-3.0,-0.0
1728,1.728,7.8,4.0,0.8,1.9
1729,1.729,6.8,4.4,-2.8,3.7
1730,1.730,5.8,6.7,-1.2,2.5
1731,1.731,-0.4,9.5,-3.2,-1.0
1732,1.732,-2.8,5.5,-2.7,0.3
1733,1.733,0.8,2.8,-4.4,1.6
1734,1.734,0.1,5.3,-7.9,-1.0
1735,1.735,1.9,5.7,-2.3,1.9
1736,1.736,1.4,11.9,8.7,4.6
1737,1.737,-0.1,5.7,13.5,5.6
1738,1.738,-0.5,-1.4,9.5,7.8
1739,1.739,3.9,-0.4,0.5,8.7
1740,1.740,8.1,4.0,8.9,9.5
1741,1.741,4.4,9.6,14.3,7.3
1742,1.742,2.9,7.5,5.8,8.0
1743,1.743,-2.0,5.6,0.0,3.1
1744,1.744,-0.1,9.8,1.2,5.6
1745,1.745,1.7,7.2,2.3,2.6
1746,1.746,-5.4,5.7,-10.7,7.1
1747,1.747,-10.2,9.7,-8.7,4.8
1748,1.748,-4.0,3.8,17.3,-2.4
1749,1.749,-4.8,1.4,13.8,3.3
1750,1.750,0.3,-3.7,-2.9,4.6
1751,1.751,-3.0,-13.6,0.3,-1.3
1752,1.752,-1.2,-17.8,-2.3,3.1
1753,1.753,-3.9,-1.0,0.3,2.7
1754,1.754,-1.4,5.8,2.7,-1.6
1755,1.755,-0.1,-0.5,-3.4,-0.7
1756,1.756,-5.4,-6.2,-1.4,-6.3
1757,1.757,-0.7,-0.2,-3.3,-10.8
1758,1.758,4.3,-2.0,-4.8,1.6
1759,1.759,3.7,-3.6,-3.2,3.6
1760,1.760,5.5,-5.0,-4.4,2.4
1761,1.761,7.0,-11.5,-5.5,1.3
1762,1.762,3.6,-12.7,0.5,-2.3
1763,1.763,4.8,-7.4,1.6,-0.9
1764,1.764,5.3,-10.4,0.8,2.6
1765,1.765,-0.2,-14.8,-3.6,-2.0
1766,1.766,-4.2,-23.6,2.2,-8.0
1767,1.767,-6.4,-13.0,1.5,-0.5
1768,1.768,-7.0,-8.8,-8.3,2.6
1769,1.769,-4.0,2.9,-1.2,-3.4
1770,1.770,0.9,7.5,0.2,-12.1
1771,1.771,0.3,11.7,-0.9,-17.8
1772,1.772,0.9,20.7,8.8,-14.5
1773,1.773,3.5,12.5,2.3,-9.6
1774,1.774,1.1,5.0,-13.0,3.8
1775,1.775,1.5,-1.8,-6.7,-1.7
1776,1.776,1.9,-11.6,-1.1,-10.3
1777,1.777,1.5,-15.6,-6.2,-14.9
1778,1.778,5.2,-0.3,-10.9,-4.9
1779,1.779,4.7,10.0,-6.7,-8.8
1780,1.780,4.3,15.6,-0.3,-2.9
1781,1.781,2.3,20.7,3.1,2.3
1782,1.782,0.5,12.9,-0.0,3.3
1783,1.783,-0.4,-8.4,6.6,2.3
1784,1.784,-1.3,-23.8,2.1,-3.4
1785,1.785,-1.1,-9.9,1.3,-7.1
1786,1.786,-4.3,-12.4,-1.0,2.7
1787,1.787,-1.3,-1.0,-5.7,-1.6
1788,1.788,-0.9,5.2,-4.0,-3.0
1789,1.789,-5.6,-0.4,-5.6,0.3
1790,1.790,-1.1,-9.0,-4.2,1.2
1791,1.791,-1.7,-1.3,2.3,0.0
1792,1.792,-0.2,2.9,5.1,-2.8
1793,1.793,-2.7,4.2,-4.8,2.6
1794,1.794,-2.3,3.1,-6.2,-1.3
1795,1.795,-6.8,4.2,-3.0,-0.9
1796,1.796,-1.5,9.0,-4.2,-4.2
1797,1.797,-2.2,13.4,-1.5,-6.0
1798,1.798,-4.2,12.7,-4.4,-3.8
1799,1.799,-2.5,10.5,-5.3,-3.8
1800,1.800,0.2,8.6,-0.5,-6.9
1801,1.801,0.6,8.1,-1.4,-7.6
1802,1.802,3.7,6.6,-1.0,-2.9
1803,1.803,0.9,12.1,-1.7,-2.5
1804,1.804,5.6,14.3,-0.5,-2.2
1805,1.805,1.0,11.1,-4.8,-2.1
1806,1.806,-0.8,3.3,-10.9,-2.0
1807,1.807,4.1,-1.9,-7.2,-4.9
1808,1.808,3.5,-10.6,-9.6,-9.4
1809,1.809,1.8,-11.7,-11.7,-11.3
1810,1.810,1.3,-6.3,-6.5,-11.2
1811,1.811,-2.2,-9.2,2.7,-5.0
1812,1.812,-0.9,-10.0,14.2,-2.5
1813,1.813,-3.7,-9.2,12.5,8.6
1814,1.814,1.8,-12.7,8.1,6.7
1815,1.815,4.2,-12.0,9.1,7.6
1816,1.816,-0.8,-6.5,5.5,13.7
1817,1.817,-1.4,-8.6,6.3,9.9
1818,1.818,-3.2,1.3,5.2,4.2
1819,1.819,-0.5,14.3,4.1,10.5
1820,1.820,-3.0,19.5,4.8,5.7
1821,1.821,-4.2,27.4,-3.4,6.2
1822,1.822,-2.2,28.9,-2.6,5.1
1823,1.823,3.3,30.2,-1.8,-1.3
1824,1.824,4.2,31.5,-1.1,-0.8
1825,1.825,7.9,19.8,1.2,1.0
1826,1.826,11.2,8.9,7.7,1.3
1827,1.827,5.9,-3.9,11.9,6.4
1828,1.828,6.7,-26.3,7.8,14.1
1829,1.829,3.4,-23.2,4.0,4.1
1830,1.830,-1.9,-20.4,5.8,-5.3
1831,1.831,0.3,-27.9,4.0,12.1
1832,1.832,5.0,-7.1,3.4,9.3
1833,1.833,4.5,-15.3,4.8,6.8
1834,1.834,1.9,-17.7,-1.1,4.4
1835,1.835,4.4,-6.2,-0.4,-1.5
1836,1.836,4.1,0.1,-4.1,-0.0
1837,1.837,-0.4,-1.7,-8.7,-4.9
1838,1.838,-2.1,-10.3,-5.8,-6.5
1839,1.839,1.7,0.7,-5.3,-5.5
1840,1.840,9.2,-9.2,0.1,-2.2
1841,1.841,4.0,-10.4,8.2,-5.6
1842,1.842,3.1,-9.3,9.2,8.8
1843,1.843,-3.1,-10.3,12.1,14.8
1844,1.844,-3.8,-11.3,14.8,12.8
1845,1.845,-0.1,-8.6,7.6,11.0
1846,1.846,3.2,-4.6,2.8,15.5
1847,1.847,-0.9,-5.3,9.1,11.2
1848,1.848,-5.8,-3.4,6.7,4.6
1849,1.849,-3.8,2.0,7.5,-3.8
1850,1.850,0.4,5.6,-2.3,7.9
1851,1.851,-1.1,3.6,2.0,-3.2
1852,1.852,-2.5,1.8,11.1,-10.3
1853,1.853,-4.6,-0.9,-1.7,9.1
1854,1.854,-7.4,5.6,0.1,17.3
1855,1.855,-3.4,11.7,4.8,9.7
1856,1.856,-2.9,7.6,3.6,7.4
1857,1.857,-1.5,3.9,-8.1,1.0
1858,1.858,0.5,9.3,-14.0,-0.0
1859,1.859,0.9,7.2,-15.5,-1.9
1860,1.860,0.5,8.9,-5.4,-10.6
1861,1.861,-3.5,11.4,1.2,-12.1
1862,1.862,-6.2,3.9,16.7,-21.9
1863,1.863,-5.7,-3.6,14.7,-2.4
1864,1.864,-4.5,-0.8,1.6,5.9
1865,1.865,-3.3,-0.1,-24.2,3.4
1866,1.866,-3.7,0.6,-27.7,-8.0
1867,1.867,-2.8,-0.2,2.8,-10.1
1868,1.868,1.6,-2.2,-17.6,-8.2
1869,1.869,0.9,1.9,8.5,-16.7
1870,1.870,-4.5,6.7,18.7,-5.8
1871,1.871,-5.3,0.7,3.5,4.1
1872,1.872,-4.7,3.1,0.9,5.5
1873,1.873,-5.4,6.6,-11.7,-2.6
1874,1.874,-2.8,3.2,-9.3,-3.6
1875,1.875,-3.4,6.1,13.8,-2.6
1876,1.876,-1.3,3.3,10.8,7.1
1877,1.877,-1.7,-0.2,2.6,11.1
1878,1.878,-1.5,-7.0,-4.9,3.0
1879,1.879,-3.3,-10.0,-2.6,-2.2
1880,1.880,-3.1,-9.2,-4.6,4.6
1881,1.881,0.4,-11.7,-2.8,3.8
1882,1.882,1.8,-12.6,2.4,3.1
1883,1.883,2.9,-9.3,0.9,2.4
1884,1.884,2.5,-0.4,5.1,1.9
1885,1.885,2.7,3.4,1.3,1.4
1886,1.886,-0.5,-0.1,-6.9,-3.4
1887,1.887,3.9,3.0,-3.8,6.6
1888,1.888,-0.4,4.0,-4.8,2.5
1889,1.889,-3.1,-0.5,-16.3,3.8
1890,1.890,-1.8,3.5,-11.7,-1.9
1891,1.891,-0.6,-1.6,-10.4,-7.1
1892,1.892,1.3,0.3,1.3,-6.1
1893,1.893,-2.1,-0.3,-6.5,0.2
1894,1.894,-3.5,-1.8,-10.7,-0.5
1895,1.895,2.5,-4.4,0.9,-5.5
1896,1.896,5.1,-0.4,-3.8,4.5
1897,1.897,9.0,3.3,0.3,3.2
1898,1.898,8.2,6.8,-6.3,7.2
1899,1.899,7.5,4.7,-5.2,1.4
1900,1.900,6.8,2.7,-2.2,4.6
1901,1.901,4.1,6.1,4.5,3.8
1902,1.902,6.5,3.9,0.0,11.8
1903,1.903,5.2,3.6,-5.7,4.5
1904,1.904,4.8,4.7,2.3,-2.2
1905,1.905,3.7,3.8,7.5,2.4
1906,1.906,6.0,8.3,2.6,1.7
1907,1.907,3.9,7.8,-3.7,5.4
1908,1.908,-0.3,4.8,-11.0,-3.1
1909,1.909,5.1,7.4,1.6,-8.9
1910,1.910,2.9,4.0,3.2,-5.7
1911,1.911,-0.4,3.5,-1.6,-0.8
1912,1.912,0.1,3.1,-3.0,-1.6
1913,1.913,0.6,-1.0,-1.7,-5.5
1914,1.914,4.1,-0.6,1.7,-0.3
1915,1.915,2.8,-3.1,4.8,-2.2
1916,1.916,0.8,-5.3,1.8,-3.9
1917,1.917,-1.6,-1.7,0.9,-4.2
1918,1.918,-0.7,-3.1,1.7,-2.7
1919,1.919,-0.9,-0.1,-3.4,4.0
1920,1.920,2.2,-2.1,5.2,-10.4
1921,1.921,1.1,3.4,8.6,-4.1
1922,1.922,2.9,-2.1,11.8,5.5
1923,1.923,-2.1,-1.2,10.8,4.0
1924,1.924,-5.6,-9.7,8.2,-3.7
1925,1.925,-2.3,-3.8,7.4,-2.3
1926,1.926,-5.1,-8.9,6.7,-6.0
1927,1.927,-1.4,-5.9,6.1,-7.1
1928,1.928,-7.8,-8.4,3.2,-3.8
1929,1.929,-3.2,-2.7,2.7,1.1
1930,1.930,-0.7,-1.9,-0.7,-6.8
1931,1.931,-1.4,0.2,0.7,-3.6
1932,1.932,-0.6,-3.9,6.8,-2.6
1933,1.933,0.0,-5.3,2.4,-3.4
1934,1.934,-1.4,-5.7,6.5,-0.9
1935,1.935,3.2,-3.4,7.3,5.7
1936,1.936,6.3,-1.3,9.3,11.9
1937,1.937,5.9,0.6,6.4,9.5
1938,1.938,2.5,5.1,6.0,6.0
1939,1.939,4.8,11.8,4.6,4.1
1940,1.940,3.7,12.8,6.9,-1.3
1941,1.941,4.8,13.7,6.6,5.4
1942,1.942,1.2,11.6,4.9,9.8
1943,1.943,0.8,12.3,-0.1,4.2
1944,1.944,2.1,3.4,-10.9,2.1
1945,1.945,-1.5,-3.1,6.5,-7.8
1946,1.946,2.0,-8.9,-0.2,-6.4
1947,1.947,-4.6,-11.9,-2.2,-2.5
1948,1.948,-3.5,-14.7,-0.3,-1.4
1949,1.949,-2.6,-19.1,-5.3,-2.4
1950,1.950,-6.5,-6.9,-9.8,-3.3
1951,1.951,-7.2,-5.1,-11.1,-2.4
1952,1.952,-5.2,-3.6,-4.5,-8.0
1953,1.953,-4.6,-7.7,-0.9,-4.4
1954,1.954,-1.9,-8.9,-1.9,1.5
1955,1.955,4.6,6.5,-0.8,-0.9
1956,1.956,2.0,25.4,-10.4,-8.9
1957,1.957,4.4,32.9,-9.0,-3.6
1958,1.958,5.2,35.2,-3.1,-0.7
1959,1.959,2.7,38.4,2.1,-1.8
1960,1.960,0.8,36.3,-5.2,-2.7
1961,1.961,-3.4,30.6,-2.2,1.3
1962,1.962,-1.9,28.9,-3.0,6.3
1963,1.963,-1.4,24.2,-2.1,7.0
1964,1.964,-1.0,5.6,-5.7,6.3
1965,1.965,-1.5,-7.1,-9.0,2.6
1966,1.966,3.9,-9.4,-6.0,0.1
1967,1.967,3.1,-7.4,-5.5,4.1
1968,1.968,-2.0,-24.5,-4.0,-1.9
1969,1.969,-4.0,-45.3,-3.6,-6.0
1970,1.970,-10.7,-70.5,-4.0,-8.2
1971,1.971,-9.9,-60.4,-1.6,-5.0
1972,1.972,-14.0,-39.1,-3.9,-0.9
1973,1.973,-10.5,-30.9,-6.7,-1.4
1974,1.974,-8.6,-23.4,-1.3,3.0
1975,1.975,-8.1,-30.2,-3.7,2.4
1976,1.976,-9.7,-32.4,-4.5,-2.6
1977,1.977,-2.4,-11.6,1.3,-6.0
1978,1.978,0.7,-3.4,0.4,2.9
1979,1.979,3.4,4.1,-0.4,4.1
1980,1.980,-1.1,1.8,8.1,2.9
1981,1.981,1.2,8.0,9.1,1.8
1982,1.982,4.7,9.8,8.0,6.5
1983,1.983,4.0,11.5,-2.8,3.8
1984,1.984,2.1,16.1,-7.1,7.7
1985,1.985,2.4,17.4,-3.3,-3.3
1986,1.986,5.8,18.6,-4.5,-8.0
1987,1.987,6.1,15.0,-10.0,7.6
1988,1.988,3.1,11.8,-13.0,-2.9
1989,1.989,-0.3,6.9,0.2,-16.2
1990,1.990,2.6,11.3,13.3,-4.2
1991,1.991,3.7,12.0,4.6,9.8
1992,1.992,3.2,12.6,-0.2,-3.5
1993,1.993,5.4,13.2,-1.6,-1.9
1994,1.994,3.2,10.2,-0.5,-3.4
1995,1.995,-1.1,2.0,10.0,0.7
1996,1.996,-5.4,-1.5,17.0,1.9
1997,1.997,-4.0,-6.9,-0.1,3.0
1998,1.998,-5.6,-15.8,-11.7,-2.3
1999,1.999,-2.7,-12.4,-13.8,-9.1
2000,2.000,-4.0,-0.8,-0.7,-11.8
2001,2.001,-7.4,3.8,1.0,-6.2
2002,2.002,-2.7,-0.4,5.6,-4.0
2003,2.003,-3.4,3.4,9.7,-3.4
2004,2.004,0.7,11.5,0.5,-0.4
2005,2.005,2.1,18.8,-7.7,-6.3
2006,2.006,2.5,21.7,-2.4,-2.3
2007,2.007,6.4,22.5,0.5,7.2
2008,2.008,3.7,26.5,-0.4,3.4
2009,2.009,3.1,18.5,-12.5,-0.0
2010,2.010,-1.0,8.9,3.1,-15.9
2011,2.011,1.6,7.6,13.6,4.8
2012,2.012,4.0,4.1,11.7,24.3
2013,2.013,5.3,5.2,10.1,11.8
2014,2.014,4.0,-3.6,11.6,9.6
2015,2.015,4.3,-9.5,10.2,11.7
2016,2.016,7.3,-12.7,6.4,13.6
2017,2.017,8.4,-9.9,9.9,12.0
2018,2.018,5.1,-5.5,10.9,10.5
2019,2.019,4.7,-8.0,8.1,9.2
2020,2.020,5.9,-11.7,5.5,10.6
2021,2.021,0.4,-13.7,6.4,4.8
2022,2.022,-5.2,-15.6,10.1,3.9
2023,2.023,-3.1,-10.7,12.1,-2.7
2024,2.024,-6.3,-7.4,6.8,10.7
2025,2.025,-0.9,-9.2,6.2,12.6
2026,2.026,-0.2,-10.7,0.3,11.1
2027,2.027,0.5,-7.2,6.0,0.3
2028,2.028,2.3,-3.2,-1.9,-0.9
2029,2.029,2.9,-5.8,-0.8,0.5
2030,2.030,1.5,-7.2,-5.5,-0.5
2031,2.031,1.2,-9.3,-8.0,-3.4
2032,2.032,0.9,-3.2,-2.3,-4.2
2033,2.033,0.7,6.6,-5.8,-5.0
2034,2.034,3.1,7.9,-9.0,2.4
2035,2.035,1.7,9.1,0.0,-2.3
2036,2.036,6.0,10.2,-9.0,0.4
2037,2.037,6.6,7.4,-10.0,-3.5
2038,2.038,1.9,4.8,1.8,-5.5
2039,2.039,5.2,7.2,-2.8,-2.1
2040,2.040,8.3,0.6,-1.3,-1.4
2041,2.041,2.5,-10.8,0.0,-6.2
2042,2.042,0.2,-6.1,-3.3,-8.0
2043,2.043,-6.3,1.0,-0.1,-7.3
2044,2.044,0.0,2.3,-1.0,-4.5
2045,2.045,-0.7,5.8,-7.1,-2.9
2046,2.046,-2.7,0.5,-7.8,-9.5
2047,2.047,0.7,5.4,-8.5,-10.3
2048,2.048,1.4,4.5,-13.0,-5.8
2049,2.049,-2.2,0.5,-14.7,-1.6
2050,2.050,0.4,-1.7,-6.5,-3.7
2051,2.051,-5.2,4.2,6.5,-1.7
2052,2.052,-2.7,-1.4,-2.1,-3.3
2053,2.053,-1.8,-2.1,-3.5,-2.8
2054,2.054,-2.4,-0.1,-10.6,-1.3
2055,2.055,-2.8,0.5,-9.2,-1.6
2056,2.056,-5.3,-6.6,-3.3,-5.2
2057,2.057,-1.7,-15.3,-0.2,-4.6
2058,2.058,-0.3,-21.1,0.8,-4.9
2059,2.059,-4.6,-15.8,-7.1,1.3
2060,2.060,-1.8,-13.7,-4.7,2.3
2061,2.061,-1.1,-8.9,11.3,5.0
2062,2.062,2.7,-1.0,13.6,9.1
2063,2.063,2.4,0.1,11.5,12.8
2064,2.064,0.3,6.8,9.7,9.6
2065,2.065,0.8,18.3,8.1,3.0
2066,2.066,2.7,22.9,6.6,4.0
2067,2.067,0.5,27.0,-3.3,3.2
2068,2.068,0.3,12.8,-7.1,-3.3
2069,2.069,2.4,7.1,-6.0,-7.7
2070,2.070,0.7,8.8,-2.9,-11.8
2071,2.071,1.0,7.3,-3.8,-8.1
2072,2.072,-2.0,11.5,-4.7,-12.7
2073,2.073,-1.5,10.2,-2.4,-7.4
2074,2.074,-6.8,9.1,1.2,-3.8
2075,2.075,-8.9,6.0,5.8,-7.1
2076,2.076,-5.6,10.8,14.8,-4.1
2077,2.077,-3.7,8.2,-4.7,0.7
2078,2.078,0.0,7.4,-18.6,4.0
2079,2.079,-4.4,3.9,-1.0,-5.1
2080,2.080,1.0,-5.9,15.0,-9.0
2081,2.081,0.3,-18.7,17.1,8.6
2082,2.082,-0.3,-13.5,15.2,26.2
2083,2.083,1.5,-15.0,10.0,19.4
2084,2.084,-0.0,-7.9,11.5,4.7
2085,2.085,1.4,-6.6,1.6,2.8
2086,2.086,0.2,-0.7,-4.9,11.3
2087,2.087,1.4,-3.8,-3.8,-2.9
2088,2.088,-4.0,-10.5,1.4,-1.1
2089,2.089,-0.0,-9.6,4.3,0.5
2090,2.090,2.1,-3.9,5.2,8.2
2091,2.091,1.5,-14.8,-0.4,3.9
2092,2.092,-2.7,-22.6,-4.1,2.6
2093,2.093,-2.2,-15.5,-7.4,-3.4
2094,2.094,1.2,-6.5,-3.3,-2.4
2095,2.095,0.8,1.7,-5.9,-5.4
2096,2.096,-0.5,2.7,-9.4,-2.9
2097,2.097,-3.0,5.6,-2.8,-15.0
2098,2.098,-1.3,10.0,3.9,-3.1
2099,2.099,1.9,7.6,10.0,10.9
2100,2.100,0.6,2.5,2.7,5.2
2101,2.101,-1.4,-0.7,3.6,10.2
2102,2.102,-3.9,-0.1,6.2,5.4
2103,2.103,-1.6,2.5,-5.9,1.1
2104,2.104,-2.5,0.1,-11.1,-0.3
2105,2.105,0.6,-3.9,6.0,-8.7
2106,2.106,0.9,-3.4,-0.9,-16.3
2107,2.107,-0.9,0.1,-3.1,-7.7
2108,2.108,-2.5,2.2,-8.9,2.7
2109,2.109,-4.0,5.0,-3.9,-1.8
2110,2.110,0.2,4.0,-5.6,-5.9
2111,2.111,-1.6,6.3,-12.9,-0.3
2112,2.112,1.1,6.1,-16.9,-8.0
2113,2.113,1.5,7.5,-6.6,-13.1
2114,2.114,3.7,3.8,-2.6,-10.9
2115,2.115,4.1,0.1,-1.6,-4.0
2116,2.116,4.4,-0.3,-0.7,-9.3
2117,2.117,3.5,1.9,-6.3,-1.8
2118,2.118,6.2,4.7,-5.7,0.8
2119,2.119,4.4,-0.7,1.9,-2.7
2120,2.120,0.7,-11.1,6.8,-2.4
2121,2.121,1.2,1.8,7.4,-3.9
2122,2.122,7.0,7.0,-0.9,-5.4
2123,2.123,4.6,8.5,-17.3,1.0
2124,2.124,1.0,1.4,-10.9,-6.5
2125,2.125,0.4,-10.3,-17.6,-11.8
2126,2.126,-0.2,-8.8,-4.8,-5.4
2127,2.127,0.4,-18.7,-0.0,-13.0
2128,2.128,3.8,-7.0,-5.1,-9.3
2129,2.129,0.8,0.8,1.6,-10.9
2130,2.130,-1.2,4.9,-10.5,-9.5
2131,2.131,-0.1,3.6,-9.4,-10.9
2132,2.132,0.2,4.7,-8.3,-19.4
2133,2.133,-0.1,7.8,-9.9,-4.0
2134,2.134,0.1,4.9,-1.9,-16.1
2135,2.135,-1.1,5.7,1.0,-10.3
2136,2.136,2.1,4.9,-0.1,-1.2
2137,2.137,1.6,-0.1,-9.9,-6.7
2138,2.138,0.3,-2.1,-8.7,-11.6
2139,2.139,0.6,2.1,-5.3,-10.3
2140,2.140,3.9,8.1,-4.2,-11.6
2141,2.141,1.7,7.4,0.7,-10.3
2142,2.142,2.8,9.5,-0.1,-7.0
2143,2.143,4.5,15.5,-5.6,-7.6
2144,2.144,-0.6,13.1,-12.0,-6.3
2145,2.145,0.1,12.4,1.5,-8.1
2146,2.146,-0.6,3.9,15.1,-3.8
2147,2.147,2.3,5.0,10.3,4.3
2148,2.148,-0.4,-10.9,2.9,6.2
2149,2.149,-3.0,-27.0,7.6,2.8
2150,2.150,-5.2,-24.8,9.4,1.6
2151,2.151,-2.4,-23.0,6.5,6.6
2152,2.152,-1.4,-21.3,6.1,15.2
2153,2.153,-3.2,-13.5,21.3,11.8
2154,2.154,-3.0,-3.6,28.3,17.7
2155,2.155,-7.3,2.9,30.9,31.3
2156,2.156,-11.5,6.4,33.3,34.6
2157,2.157,-12.1,5.3,29.5,47.2
2158,2.158,-8.7,10.2,34.5,47.5
2159,2.159,-6.6,9.3,31.5,47.9
2160,2.160,-7.9,3.7,38.3,53.1
2161,2.161,-7.0,6.1,39.7,66.1
2162,2.162,-8.1,8.3,37.5,68.9
2163,2.163,-3.1,-1.6,37.5,73.6
2164,2.164,6.3,-5.8,37.5,81.6
2165,2.165,5.0,-7.1,36.1,88.9
2166,2.166,3.8,-15.3,46.5,91.4
2167,2.167,0.7,-16.4,46.2,103.0
2168,2.168,1.6,-13.5,46.1,123.3
2169,2.169,-2.8,-7.3,45.9,137.6
2170,2.170,-8.4,-8.1,53.6,146.0
2171,2.171,-13.5,1.3,44.8,145.5
2172,2.172,-14.2,7.8,52.1,141.4
2173,2.173,-13.6,8.9,47.0,123.7
2174,2.174,-9.9,12.0,31.7,102.2
2175,2.175,-4.4,13.0,2.5,69.6
2176,2.176,3.6,12.0,7.2,39.3
2177,2.177,4.7,8.0,18.9,11.6
2178,2.178,11.4,10.1,2.5,16.2
2179,2.179,14.1,9.4,-6.1,13.6
2180,2.180,23.0,10.0,-19.6,-7.2
2181,2.181,24.1,6.3,-42.0,-31.8
2182,2.182,27.3,4.8,-50.9,-68.5
2183,2.183,20.6,-1.9,-59.0,-102.8
2184,2.184,14.5,-1.0,-71.5,-116.1
2185,2.185,10.5,-1.9,-78.3,-136.6
2186,2.186,12.7,-13.9,-80.4,-155.2
2187,2.187,5.6,-19.1,-74.8,-172.3
2188,2.188,4.7,-23.7,-63.0,-181.8
2189,2.189,7.5,-13.9,-58.5,-179.5
2190,2.190,6.8,3.1,-60.2,-182.6
2191,2.191,0.4,5.3,-56.7,-185.5
2192,2.192,1.4,7.4,-65.3,-188.5
2193,2.193,3.9,1.8,-69.0,-195.0
2194,2.194,3.2,0.1,-70.5,-208.1
2195,2.195,3.9,1.7,-64.9,-210.8
2196,2.196,3.4,5.8,-66.3,-196.4
2197,2.197,5.0,4.5,-63.4,-187.3
2198,2.198,0.5,-3.8,-62.2,-183.1
2199,2.199,-6.0,-2.8,-60.1,-165.6
2200,2.200,-1.6,-3.8,-52.8,-139.4
2201,2.201,0.8,7.6,-50.2,-107.6
2202,2.202,0.1,6.0,-54.3,-86.9
2203,2.203,-1.7,10.1,-44.6,-68.3
2204,2.204,0.1,1.0,-38.6,-36.7
2205,2.205,3.8,-2.5,-33.1,-16.2
2206,2.206,7.4,-5.7,-21.2,10.4
2207,2.207,3.4,-10.5,-20.6,26.9
2208,2.208,2.0,-2.6,-20.2,34.9
2209,2.209,-2.4,2.6,-17.2,35.8
2210,2.210,-7.6,9.3,-4.1,41.9
2211,2.211,-9.7,6.6,11.9,42.2
2212,2.212,-11.5,1.0,8.4,65.3
2213,2.213,-13.2,0.2,5.2,66.5
2214,2.214,-20.1,3.4,5.8,67.3
2215,2.215,-19.1,1.6,6.3,67.8
2216,2.216,-18.1,-2.1,16.1,73.2
2217,2.217,-7.6,-9.6,22.0,77.8
2218,2.218,-8.9,-12.8,32.6,82.0
2219,2.219,-5.0,1.7,48.8,93.1
2220,2.220,-6.1,3.8,59.2,103.1
2221,2.221,-7.1,5.7,64.4,118.3
2222,2.222,-2.2,4.0,65.2,123.2
2223,2.223,-6.5,2.5,69.3,123.3
2224,2.224,-5.6,-1.6,63.7,127.1
2225,2.225,-4.8,-0.3,66.9,126.9
2226,2.226,-4.1,3.2,64.7,126.6
2227,2.227,3.7,6.3,60.4,123.6
2228,2.228,2.7,1.6,58.6,112.9
2229,2.229,1.8,4.3,56.9,112.5
2230,2.230,4.4,3.5,67.7,105.9
2231,2.231,-1.3,2.8,81.2,99.8
2232,2.232,-3.5,-5.7,71.2,94.3
2233,2.233,1.0,-11.5,72.4,92.5
2234,2.234,3.9,-14.6,61.1,82.1
2235,2.235,-4.3,-15.5,50.9,74.9
2236,2.236,-22.1,-11.0,52.0,66.1
2237,2.237,-29.7,-8.6,46.0,54.0
2238,2.238,-18.4,-13.6,40.6,46.0
2239,2.239,-12.2,-12.9,37.8,41.7
2240,2.240,-2.8,-7.4,24.7,35.3
2241,2.241,12.7,-6.6,19.2,17.9
2242,2.242,23.1,-0.6,7.5,10.8
2243,2.243,24.8,3.5,-6.3,9.1
2244,2.244,29.9,8.7,-11.6,-9.1
2245,2.245,37.6,16.0,-16.3,-20.9
2246,2.246,44.6,24.9,-7.9,-40.6
2247,2.247,40.7,28.4,-8.7,-31.2
2248,2.248,37.2,23.3,-22.3,-17.3
2249,2.249,21.1,16.6,-31.1,-36.6
2250,2.250,0.3,12.3,-14.8,-37.9
2251,2.251,-8.1,10.0,-7.7,-38.8
2252,2.252,-5.7,10.8,-20.1,-39.3
2253,2.253,-12.6,10.3,-24.4,-43.8
2254,2.254,-14.8,8.6,-22.0,-47.6
2255,2.255,-24.4,7.2,-22.4,-37.1
2256,2.256,-22.8,6.8,-25.3,-33.7
2257,2.257,-30.7,3.8,-27.8,-38.8
2258,2.258,-26.7,6.7,-19.4,-46.0
2259,2.259,-20.3,7.9,-19.4,-38.2
2260,2.260,-12.2,8.9,-29.9,-31.0
2261,2.261,-7.0,4.6,-27.4,-33.9
2262,2.262,-2.8,-4.0,-22.6,-33.7
2263,2.263,0.0,-4.6,-25.8,-34.5
2264,2.264,4.4,-11.1,-21.0,-38.4
2265,2.265,13.2,-15.4,-28.3,-37.4
2266,2.266,16.6,-14.5,-24.2,-35.1
2267,2.267,13.5,-15.2,-26.2,-37.6
2268,2.268,8.7,-9.2,-20.9,-31.2
2269,2.269,-4.6,-5.1,-9.7,-31.6
2270,2.270,-17.8,-10.1,-10.2,-24.8
2271,2.271,-26.4,-8.1,-8.2,-15.4
2272,2.272,-21.8,-3.9,-10.9,-15.2
2273,2.273,-11.9,-6.5,-11.3,-16.9
2274,2.274,-2.9,-14.0,-7.7,-20.2
2275,2.275,5.3,-19.3,-13.3,-23.2
2276,2.276,10.6,-14.4,-13.6,-11.3
2277,2.277,21.3,-6.5,-8.0,-21.3
2278,2.278,25.4,-5.5,-14.8,-21.9
2279,2.279,34.5,-6.5,-7.7,-4.3
2280,2.280,35.7,-7.4,-2.9,-10.5
2281,2.281,30.4,-8.2,-6.6,-7.9
2282,2.282,23.7,-7.6,-4.2,-9.4
2283,2.283,15.7,-1.7,-13.9,-10.7
2284,2.284,21.0,-2.5,-17.9,-15.1
2285,2.285,8.4,1.0,-0.9,-21.9
2286,2.286,-10.6,1.7,-3.1,-2.3
2287,2.287,-33.4,8.2,3.2,0.5
2288,2.288,-30.4,5.5,5.0,3.0
2289,2.289,-22.1,4.6,-0.2,0.7
2290,2.290,-9.5,8.1,1.2,2.6
2291,2.291,-7.2,0.7,-0.3,4.3
2292,2.292,-13.4,-4.2,6.1,-1.0
2293,2.293,-11.6,-3.4,0.0,0.3
2294,2.294,-23.6,0.5,0.9,-7.1
2295,2.295,-25.1,-0.3,-12.0,-0.9
2296,2.296,-12.2,1.5,3.3,6.9
2297,2.297,-0.1,1.9,9.3,3.5
2298,2.298,7.7,1.4,3.5,6.0
2299,2.299,9.0,-3.2,8.3,4.7
2300,2.300,12.8,0.9,3.4,6.7
2301,2.301,16.2,3.4,4.5,4.1
2302,2.302,19.3,4.7,2.9,5.6
2303,2.303,12.5,6.8,6.1,2.2
2304,2.304,13.3,3.9,9.0,5.5
2305,2.305,20.5,-0.9,7.7,12.5
2306,2.306,11.7,0.9,4.8,11.1
2307,2.307,5.8,-7.0,6.9,9.7
2308,2.308,-10.2,-12.4,3.0,10.1
2309,2.309,-12.5,-7.7,2.1,5.7
2310,2.310,-14.6,-1.6,1.3,4.6
2311,2.311,-20.2,3.9,2.6,7.5
2312,2.312,-21.9,0.1,-1.1,7.6
2313,2.313,-23.4,-0.7,2.7,5.7
2314,2.314,-16.3,4.6,4.0,4.9
2315,2.315,-4.6,2.3,6.3,1.4
2316,2.316,-6.1,6.7,-0.6,3.1
2317,2.317,-4.7,6.1,-1.8,-1.3
2318,2.318,4.3,8.6,11.2,-3.1
2319,2.319,12.5,9.0,12.9,4.0
2320,2.320,13.6,4.9,4.2,11.1
2321,2.321,12.6,6.4,-6.9,7.9
2322,2.322,11.7,-0.2,-2.9,-0.3
2323,2.323,6.1,5.9,-6.9,-1.6
2324,2.324,9.7,6.7,-1.1,-8.6
2325,2.325,-0.1,4.4,-0.2,-8.0
2326,2.326,-4.3,11.6,0.6,3.8
2327,2.327,2.3,10.6,3.2,-5.0
2328,2.328,-8.3,8.0,-1.0,-0.5
2329,2.329,1.6,10.4,2.6,6.3
2330,2.330,2.9,8.2,4.4,7.5
2331,2.331,4.1,-1.7,4.9,6.2
2332,2.332,7.2,-11.6,2.2,2.9
2333,2.333,6.2,-15.4,5.6,1.8
2334,2.334,1.8,-28.3,6.8,9.6
2335,2.335,-2.2,-9.3,2.3,6.3
2336,2.336,-1.5,8.5,-4.3,5.2
2337,2.337,4.4,20.0,-12.3,0.7
2338,2.338,-1.3,26.3,1.6,-1.7
2339,2.339,5.2,28.2,11.1,0.3
2340,2.340,-2.7,16.2,2.5,4.9
2341,2.341,-3.8,8.5,-5.3,6.6
2342,2.342,-2.8,4.4,1.8,0.6
2343,2.343,-2.0,-2.0,3.1,-1.9
2344,2.344,3.7,-5.4,-0.4,-2.6
2345,2.345,5.9,-6.4,9.3,-8.6
2346,2.346,-0.0,-11.2,2.8,3.4
2347,2.347,2.4,-20.8,3.9,8.5
2348,2.348,3.2,-24.6,0.9,7.0
2349,2.349,-1.3,-18.7,-5.8,8.4
2350,2.350,-0.7,-19.6,-1.4,-0.6
2351,2.351,2.0,-26.3,-0.5,-6.5
2352,2.352,4.6,-20.1,4.6,-1.1
2353,2.353,3.3,-12.8,2.7,-2.1
2354,2.354,-2.7,-11.7,1.0,0.6
2355,2.355,-3.6,-3.7,1.5,3.1
2356,2.356,-4.4,-4.7,4.1,2.5
2357,2.357,-0.8,-1.8,9.9,1.9
2358,2.358,-2.7,2.7,-2.1,1.4
2359,2.359,-1.0,14.8,-7.1,0.0
2360,2.360,-1.5,30.4,-5.5,-0.4
2361,2.361,-1.0,24.1,-21.1,2.8
2362,2.362,5.7,10.9,-6.4,-3.2
2363,2.363,3.6,12.0,6.3,-4.3
2364,2.364,6.5,10.3,12.0,9.1
2365,2.365,2.1,2.6,3.5,3.6
2366,2.366,1.3,4.0,5.1,2.1
2367,2.367,-2.3,0.1,3.8,3.8
2368,2.368,-8.2,-1.0,0.1,-0.2
2369,2.369,-15.4,2.1,-0.9,-3.9
2370,2.370,-10.6,-2.7,-4.0,-0.2
2371,2.371,-0.9,1.7,-6.8,1.1
2372,2.372,-2.2,5.7,-5.8,2.2
2373,2.373,-1.1,3.5,-1.7,-1.9
2374,2.374,-4.3,1.6,5.0,-4.1
2375,2.375,-1.4,-6.2,4.2,-0.3
2376,2.376,1.2,1.2,6.7,4.6
2377,2.377,2.0,-3.5,4.6,3.1
2378,2.378,5.6,-0.9,-2.5,6.0
2379,2.379,-1.7,-3.3,-3.3,4.9
2380,2.380,3.2,-1.2,-4.1,5.5
2381,2.381,0.5,-0.6,3.2,3.0
2382,2.382,-1.9,-0.2,0.5,3.7
2383,2.383,-5.5,-8.3,-0.3,4.3
2384,2.384,-2.2,-7.3,2.2,6.7
2385,2.385,1.9,-4.3,4.5,3.4
2386,2.386,3.4,-7.2,-1.3,6.2
2387,2.387,10.8,-18.8,-6.8,7.0
2388,2.388,7.6,-14.2,1.3,4.5
2389,2.389,2.8,-15.6,4.5,3.0
2390,2.390,-1.6,-6.5,-0.2,8.4
2391,2.391,-0.8,-0.7,0.8,3.7
2392,2.392,-10.3,-1.8,4.9,6.0
2393,2.393,-19.5,3.0,5.7,6.9
2394,2.394,-8.9,2.1,2.5,7.7
2395,2.395,-7.6,3.0,3.1,6.6
2396,2.396,-8.9,3.7,-2.7,5.6
2397,2.397,-5.5,0.4,1.4,-0.2
2398,2.398,-4.5,-1.4,-2.2,1.1
2399,2.399,-5.5,0.2,2.5,2.2
2400,2.400,2.4,-0.3,6.7,-4.1
2401,2.401,7.7,4.5,-0.3,-1.1
2402,2.402,8.7,1.2,2.7,-0.0
2403,2.403,11.3,4.2,-1.7,-1.9
2404,2.404,12.2,7.9,0.7,1.6
2405,2.405,10.0,4.5,-1.4,1.3
2406,2.406,14.6,2.3,-2.0,-1.1
2407,2.407,9.3,8.4,-3.7,-0.3
2408,2.408,2.7,16.4,1.2,-2.3
2409,2.409,5.4,13.3,-4.8,0.8
2410,2.410,3.0,10.4,-5.5,-2.3
2411,2.411,0.8,6.0,-7.7,-3.4
2412,2.412,1.5,-1.1,-4.4,-6.0
2413,2.413,-3.9,-9.8,-7.4,-3.4
2414,2.414,1.2,0.9,-11.1,-5.0
2415,2.415,3.2,10.8,-3.7,-5.7
2416,2.416,5.0,9.6,6.0,-9.2
2417,2.417,7.7,15.5,2.1,-6.6
2418,2.418,8.2,20.9,0.9,-5.2
2419,2.419,7.8,8.4,4.0,-8.9
2420,2.420,8.2,-7.1,3.0,-8.3
2421,2.421,3.5,-4.9,0.3,-7.9
2422,2.422,6.8,-18.1,-0.5,-6.7
2423,2.423,1.5,-33.6,-1.3,-10.0
2424,2.424,-2.1,-31.4,-0.7,-7.0
2425,2.425,-8.0,-18.2,-3.7,-6.6
2426,2.426,-8.8,-6.1,-1.2,-12.1
2427,2.427,-13.8,8.0,-3.7,-3.4
2428,2.428,-23.6,21.3,-4.2,-0.0
2429,2.429,-19.5,33.4,-7.1,-7.5
2430,2.430,-7.7,31.9,-8.3,-6.7
2431,2.431,-3.0,13.4,-7.4,-13.0
2432,2.432,4.0,11.0,-3.6,-14.0
2433,2.433,10.5,17.8,-6.3,-9.2
2434,2.434,7.1,15.8,-3.0,-8.7
2435,2.435,8.2,14.0,-1.9,-3.6
2436,2.436,-2.5,-1.6,-0.8,-3.1
2437,2.437,-12.3,-16.2,1.6,-1.5
2438,2.438,-3.3,-6.7,1.8,-2.3
2439,2.439,0.2,-11.8,4.9,-5.3
2440,2.440,5.5,-35.3,1.7,-1.1
2441,2.441,10.3,-45.4,2.8,1.6
2442,2.442,7.6,-30.1,5.1,2.8
2443,2.443,8.4,-27.3,6.7,2.0
2444,2.444,9.2,-29.8,4.5,2.9
2445,2.445,3.3,-18.3,0.2,2.9
2446,2.446,8.9,-3.7,-4.2,5.0
2447,2.447,1.0,9.5,-1.7,4.3
2448,2.448,2.1,14.7,1.6,-0.0
2449,2.449,-4.6,16.2,4.5,-7.5
2450,2.450,-17.9,20.3,2.3,-5.0
2451,2.451,-31.1,13.8,6.8,2.5
2452,2.452,-22.4,7.9,4.7,3.1
2453,2.453,-14.6,13.1,-4.5,15.3
2454,2.454,-21.7,18.0,-5.9,9.7
2455,2.455,-15.1,17.1,2.1,-8.0
2456,2.456,0.2,8.2,9.3,-10.6
2457,2.457,6.5,7.1,-3.5,3.5
2458,2.458,8.3,-0.4,-19.2,8.7
2459,2.459,6.6,-11.1,-4.8,3.2
2460,2.460,5.1,-18.3,19.8,1.2
2461,2.461,6.5,-19.6,9.5,13.7
2462,2.462,5.2,-20.8,6.3,14.9
2463,2.463,1.7,-24.0,3.4,6.7
2464,2.464,0.6,-27.6,-4.0,7.7
2465,2.465,-0.5,-22.8,-1.7,0.3
2466,2.466,2.4,-14.9,-4.0,1.2
2467,2.467,5.0,-14.0,-2.1,1.9
2468,2.468,5.8,-16.9,-7.8,-1.6
2469,2.469,5.0,-9.1,-6.2,0.9
2470,2.470,5.6,6.8,1.4,-2.1
2471,2.471,2.6,18.2,-2.8,-0.0
2472,2.472,5.2,24.4,-4.2,0.4
2473,2.473,8.6,33.8,-0.9,-1.9
2474,2.474,5.5,25.1,0.1,-6.4
2475,2.475,9.2,14.0,-2.9,0.4
2476,2.476,11.7,6.9,5.0,3.0
2477,2.477,7.7,5.6,5.9,7.2
2478,2.478,7.2,-0.3,14.6,7.7
2479,2.479,9.7,9.3,4.0,6.8
2480,2.480,7.5,8.0,-6.0,8.5
2481,2.481,2.2,4.5,0.5,4.1
2482,2.482,-5.8,-0.8,1.5,1.2
2483,2.483,-8.9,4.0,2.6,8.4
2484,2.484,-0.1,8.3,1.6,9.3
2485,2.485,5.8,9.1,-1.1,4.3
2486,2.486,6.9,4.1,1.3,3.3
2487,2.487,9.9,7.3,4.9,0.8
2488,2.488,7.2,4.3,3.0,-1.5
2489,2.489,-4.8,1.7,-3.6,-1.0
2490,2.490,-6.4,5.1,0.8,0.7
2491,2.491,-11.0,-1.6,6.4,-0.9
2492,2.492,-26.6,-4.5,4.3,1.5
2493,2.493,-24.5,-0.1,-0.3,-0.7
2494,2.494,-15.0,3.9,2.7,-2.7
2495,2.495,-20.1,3.2,4.2,-1.0
2496,2.496,-12.3,-0.1,2.8,3.4
2497,2.497,-2.4,2.9,5.9,3.9
2498,2.498,4.1,3.4,5.5,0.3
2499,2.499,5.3,4.9,8.1,4.7
2500,2.500,4.2,0.0,9.8,7.7
2501,2.501,1.3,-9.8,5.4,6.2
2502,2.502,7.5,-19.6,-1.8,8.7
2503,2.503,3.5,-18.3,-4.7,7.5
2504,2.504,4.3,-12.4,-0.2,1.4
2505,2.505,5.0,-0.6,-7.4,-1.1
2506,2.506,8.0,10.4,-4.4,-3.5
2507,2.507,5.4,14.6,-3.4,-10.0
2508,2.508,6.9,13.3,2.2,-3.8
2509,2.509,2.1,9.9,7.3,0.3
2510,2.510,1.5,-3.9,6.8,11.3
2511,2.511,4.5,-13.4,-2.1,9.9
2512,2.512,4.1,-25.4,-5.9,0.2
2513,2.513,3.7,-20.7,0.0,-1.0
2514,2.514,7.7,-10.8,-3.0,0.2
2515,2.515,9.3,1.0,-5.8,-0.7
2516,2.516,10.7,8.8,-6.6,0.4
2517,2.517,14.8,18.8,-5.8,1.4
2518,2.518,11.1,17.5,-3.5,-4.1
2519,2.519,6.6,-0.0,-2.8,-3.3
2520,2.520,2.4,-12.6,-3.3,0.1
2521,2.521,-5.7,3.6,-1.7,2.0
2522,2.522,-18.6,5.8,-0.1,-2.7
2523,2.523,-30.7,4.0,-1.4,-2.0
2524,2.524,-16.6,-1.1,-0.1,-0.1
2525,2.525,-7.1,0.5,-0.4,-0.4
2526,2.526,-2.0,-3.6,-4.0,0.2
2527,2.527,-0.5,0.2,-10.4,-6.3
2528,2.528,0.8,-7.9,-0.6,-7.2
2529,2.529,-8.3,-4.8,13.7,2.7
2530,2.530,-2.5,-5.8,4.3,11.9
2531,2.531,-3.6,-1.4,-4.3,17.9
2532,2.532,-8.5,-7.0,-2.7,2.0
2533,2.533,-9.5,-16.5,-1.3,-13.9
2534,2.534,-8.8,-15.2,0.0,-11.7
2535,2.535,-5.3,-7.0,-1.0,-6.0
2536,2.536,0.6,-1.8,4.3,-4.2
2537,2.537,2.9,-4.7,1.4,-5.6
2538,2.538,3.6,1.5,-1.2,-4.2
2539,2.539,2.9,5.5,-0.4,-2.8
2540,2.540,7.0,1.8,-1.1,-1.6
2541,2.541,5.4,5.1,0.9,-0.4
2542,2.542,2.8,9.2,3.9,-1.3
2543,2.543,4.0,12.9,-3.1,5.0
2544,2.544,2.7,18.3,-6.0,-2.2
2545,2.545,2.4,24.8,0.2,-1.1
2546,2.546,4.0,13.3,4.2,-3.7
2547,2.547,0.7,8.6,-0.8,2.0
2548,2.548,3.7,1.5,-5.4,4.3
2549,2.549,2.5,5.2,0.0,-1.6
2550,2.550,-0.8,-3.0,-2.1,-3.9
2551,2.551,3.2,-14.8,-2.8,-1.7
2552,2.552,2.7,-16.4,-1.0,1.7
2553,2.553,-4.8,-6.5,-2.5,-0.0
2554,2.554,-12.2,-13.1,-4.0,1.6
2555,2.555,-11.2,-9.6,-2.7,-4.9
2556,2.556,-6.8,0.1,1.0,-4.0
2557,2.557,-1.2,-3.8,3.5,0.1
2558,2.558,0.9,-9.6,-0.5,3.7
2559,2.559,-5.1,-0.0,-2.0,-2.1
2560,2.560,-1.1,-3.9,-0.5,-9.3
2561,2.561,2.5,-2.7,4.4,-0.5
2562,2.562,0.6,2.6,-4.2,3.0
2563,2.563,4.8,-2.3,-3.0,-2.2
2564,2.564,6.3,2.1,-2.0,-5.1
2565,2.565,4.9,3.8,4.3,-7.9
2566,2.566,7.4,4.6,3.4,-3.4
2567,2.567,7.0,-2.0,2.5,-1.0
2568,2.568,1.7,-1.1,-1.5,1.2
2569,2.569,5.3,-1.9,-10.9,5.9
2570,2.570,3.4,-4.1,-7.1,1.7
2571,2.571,7.6,-0.9,8.3,-1.9
2572,2.572,7.1,0.9,14.6,2.6
2573,2.573,9.5,6.9,12.8,2.1
2574,2.574,3.7,9.3,11.1,8.1
2575,2.575,6.1,10.1,3.3,4.1
2576,2.576,4.0,8.2,-6.5,0.6
2577,2.577,4.7,9.9,2.6,-0.0
2578,2.578,10.1,10.4,3.7,4.2
2579,2.579,10.9,2.9,2.7,0.5
2580,2.580,10.3,-0.2,3.7,3.1
2581,2.581,3.8,-1.1,2.9,7.1
2582,2.582,4.7,-0.2,5.3,8.7
2583,2.583,4.0,0.7,1.8,8.3
2584,2.584,1.8,8.8,3.7,6.1
2585,2.585,-5.3,7.9,4.3,5.8
2586,2.586,-10.1,1.2,1.7,3.3
2587,2.587,-9.1,-4.8,-4.7,3.7
2588,2.588,-3.4,0.9,-5.6,-0.8
2589,2.589,-2.6,-8.5,-6.3,-4.0
2590,2.590,-4.5,-9.6,-4.1,-4.5
2591,2.591,-1.4,-6.1,-3.5,-4.0
2592,2.592,-9.5,1.4,-2.9,-4.4
2593,2.593,-20.0,6.3,-4.3,-4.0
2594,2.594,-10.1,7.3,-3.8,0.6
2595,2.595,-6.2,14.6,-5.9,-1.1
2596,2.596,-2.7,15.6,-0.6,-1.6
2597,2.597,2.6,11.3,0.1,-2.0
2598,2.598,3.6,5.7,3.5,-1.6
2599,2.599,-7.8,5.0,0.5,0.4
2600,2.600,-12.5,-4.9,2.1,0.8
2601,2.601,-2.6,-17.8,-1.4,0.5
2602,2.602,-3.8,-29.8,-2.6,0.3
2603,2.603,-2.7,-31.4,-3.8,0.0
2604,2.604,2.6,-15.7,-0.5,-1.6
2605,2.605,1.6,-5.3,-0.1,1.7
2606,2.606,9.5,-7.1,1.1,-1.8
2607,2.607,6.3,1.5,-3.6,-5.8
2608,2.608,-0.4,-0.0,-0.2,-4.3
2609,2.609,-6.6,-9.9,-3.2,-2.8
2610,2.610,-2.7,-8.5,-3.6,-4.1
2611,2.611,-2.0,2.1,-5.1,-7.8
2612,2.612,-2.7,11.9,-1.0,-2.3
2613,2.613,-6.9,13.2,0.5,-1.6
2614,2.614,0.1,19.1,0.0,-4.9
2615,2.615,4.9,22.2,-0.4,-2.0
2616,2.616,2.2,17.4,0.9,0.6
2617,2.617,9.4,16.5,-0.9,1.1
2618,2.618,10.3,9.2,4.2,-2.9
2619,2.619,4.0,0.5,2.0,-1.4
2620,2.620,6.3,-14.9,1.4,-1.0
2621,2.621,-1.8,-17.0,0.9,0.3
2622,2.622,-2.9,-11.4,4.6,4.0
2623,2.623,3.7,-2.8,4.1,1.4
2624,2.624,1.0,-1.4,0.1,2.7
2625,2.625,-1.5,2.8,0.6,-1.0
2626,2.626,-12.5,11.8,3.1,5.4
2627,2.627,-20.4,10.6,1.8,1.0
2628,2.628,-10.6,1.0,0.6,1.7
2629,2.629,-4.1,-8.2,-0.5,0.9
2630,2.630,-7.7,-16.4,-1.5,1.5
2631,2.631,-4.6,-32.5,-0.7,-3.9
2632,2.632,-3.8,-44.0,-3.7,-6.2
2633,2.633,-3.0,-33.7,-2.6,-8.1
2634,2.634,-2.3,-20.5,-4.4,-4.0
2635,2.635,-1.6,-15.4,-8.8,1.8
2636,2.636,0.2,-14.0,0.1,-2.3
2637,2.637,1.8,-7.0,6.5,1.2
2638,2.638,1.3,-3.2,3.0,3.0
2639,2.639,5.7,2.5,1.9,2.3
2640,2.640,3.8,12.1,2.8,2.7
2641,2.641,-1.2,18.5,-10.5,-4.9
2642,2.642,-1.9,15.0,-16.2,-8.1
2643,2.643,5.8,9.6,2.7,-7.3
2644,2.644,6.7,12.4,15.3,5.8
2645,2.645,1.8,20.3,8.4,7.6
2646,2.646,2.7,25.5,6.2,2.3
2647,2.647,6.6,28.4,0.6,0.7
2648,2.648,5.9,29.2,-4.6,4.8
2649,2.649,9.1,23.5,-0.0,6.0
2650,2.650,9.6,12.5,-4.2,0.0
2651,2.651,10.1,1.5,-0.4,5.2
2652,2.652,3.5,0.0,10.2,0.3
2653,2.653,6.2,1.2,8.8,4.7
2654,2.654,6.9,-4.8,4.9,-1.0
2655,2.655,3.3,-3.8,-10.5,4.0
2656,2.656,7.9,-4.8,-8.5,7.2
2657,2.657,7.3,-9.2,-10.4,-0.7
2658,2.658,7.8,-14.9,1.6,-3.9
2659,2.659,0.3,-5.4,6.3,-3.0
2660,2.660,-0.8,-1.6,4.9,-0.4
2661,2.661,2.1,1.8,-1.6,-2.8
2662,2.662,-0.5,4.9,-0.5,-2.2
2663,2.663,-6.2,2.0,-5.8,-0.3
2664,2.664,-2.5,2.9,-4.8,-0.9
2665,2.665,2.0,0.5,-5.7,-2.4
2666,2.666,4.4,-4.9,-3.3,-1.1
2667,2.667,-2.2,-10.0,-8.9,2.4
2668,2.668,0.5,-6.7,-9.6,0.2
2669,2.669,7.7,-3.8,0.3,-1.8
2670,2.670,8.7,-2.3,1.7,-2.1
2671,2.671,2.6,2.1,-4.7,-1.1
2672,2.672,-6.2,2.7,3.5,-3.1
2673,2.673,-12.1,1.1,-10.4,0.5
2674,2.674,-19.4,-0.3,-8.5,-2.9
2675,2.675,-33.9,-2.5,14.0,-1.6
2676,2.676,-19.3,-1.3,11.0,0.4
2677,2.677,-6.0,-3.8,8.3,5.9
2678,2.678,-0.9,1.3,5.9,0.3
2679,2.679,0.7,0.5,-5.5,-1.8
2680,2.680,2.1,-0.2,0.8,0.1
2681,2.681,0.8,1.5,10.3,-2.8
2682,2.682,-0.3,-2.2,8.7,5.3
2683,2.683,0.8,2.2,13.4,11.3
2684,2.684,1.8,-0.7,14.8,12.4
2685,2.685,4.5,-0.2,11.0,11.5
2686,2.686,6.9,-2.6,12.2,14.3
2687,2.687,9.1,0.6,13.3,8.7
2688,2.688,7.2,-1.3,18.2,11.0
2689,2.689,1.9,0.6,10.4,9.2
2690,2.690,2.6,-1.7,3.1,9.8
2691,2.691,0.7,-0.8,-1.7,5.0
2692,2.692,3.7,-4.3,-0.7,1.8
2693,2.693,4.2,-2.8,-1.5,-1.0
2694,2.694,-0.3,1.4,0.8,-2.5
2695,2.695,2.7,-3.4,-2.5,-2.9
2696,2.696,0.1,5.3,-3.0,-3.2
2697,2.697,-6.4,4.3,-7.8,-1.9
2698,2.698,-5.5,5.4,-12.3,-2.8
2699,2.699,-1.4,4.5,-17.6,-7.8
2700,2.700,-2.0,3.7,-6.6,-14.3
2701,2.701,-1.3,7.8,4.4,-11.5
2702,2.702,-3.0,7.1,-2.6,-4.2
2703,2.703,-4.4,-1.4,6.6,-1.2
2704,2.704,-3.9,-4.8,7.7,5.1
2705,2.705,2.8,-1.7,4.7,4.4
2706,2.706,-1.9,-4.5,-4.0,3.7
2707,2.707,7.9,-7.1,-9.8,1.9
2708,2.708,6.7,-3.1,-17.1,-4.6
2709,2.709,3.3,-3.7,-14.2,-7.2
2710,2.710,0.3,0.9,-0.9,-7.9
2711,2.711,1.3,2.7,-2.7,-1.2
2712,2.712,0.5,-3.2,-4.3,-0.3
2713,2.713,-1.9,-4.0,-18.4,-1.0
2714,2.714,-1.1,2.7,-5.1,-1.6
2715,2.715,-0.4,3.6,3.6,-3.5
2716,2.716,5.0,9.2,2.1,-3.9
2717,2.717,1.5,7.1,-16.4,-4.4
2718,2.718,-3.0,6.5,-3.7,-4.8
2719,2.719,-5.9,3.6,-5.9,-2.5
2720,2.720,-7.3,5.1,4.5,0.4
2721,2.721,-9.8,-2.3,14.0,4.5
2722,2.722,-3.0,-7.6,15.7,5.0
2723,2.723,3.8,1.2,14.2,1.6
2724,2.724,8.3,2.4,-4.3,4.7
2725,2.725,5.9,7.7,-22.0,6.0
2726,2.726,8.2,22.3,-24.2,1.3
2727,2.727,10.3,32.8,7.2,-1.9
2728,2.728,7.5,15.8,11.7,5.9
2729,2.729,5.0,13.6,-16.9,2.8
2730,2.730,9.6,11.6,9.0,-5.9
2731,2.731,4.4,-5.5,5.6,-11.7
2732,2.732,6.8,-12.2,8.6,-19.1
2733,2.733,6.3,-31.1,11.3,-6.4
2734,2.734,1.1,-38.5,13.8,-4.7
2735,2.735,1.9,-36.2,-7.0,-0.0
2736,2.736,6.7,-34.1,-4.3,-1.4
2737,2.737,7.4,-20.8,8.2,-18.3
2738,2.738,11.2,-1.7,-7.9,2.4
2739,2.739,11.8,16.0,-1.7,10.7
2740,2.740,5.2,4.5,3.9,-2.0
2741,2.741,8.2,-10.0,12.4,9.5
2742,2.742,9.2,-8.2,7.7,19.9
2743,2.743,10.1,-6.4,6.2,6.6
2744,2.744,2.2,-20.5,4.9,4.9
2745,2.745,-13.7,-7.3,-3.4,12.6
2746,2.746,-25.1,1.4,-8.8,2.7
2747,2.747,-27.1,2.9,-7.9,-3.8
2748,2.748,-36.5,10.0,5.2,-5.0
2749,2.749,-20.8,8.7,-8.1,4.6
2750,2.750,-14.5,5.2,-3.1,0.7
2751,2.751,-12.6,8.3,1.5,-2.8
2752,2.752,-7.4,7.4,11.3,-10.3
2753,2.753,-5.8,4.7,7.3,2.3
2754,2.754,-9.9,8.7,-10.4,7.4
2755,2.755,-6.0,6.5,-8.0,-0.5
2756,2.756,-2.5,9.8,-5.9,-1.9
2757,2.757,2.8,9.2,4.4,-0.7
2758,2.758,3.8,8.7,-5.1,0.4
2759,2.759,6.5,9.2,-6.9,3.4
2760,2.760,18.5,5.1,0.7,-3.4
2761,2.761,20.3,5.6,2.0,0.9
2762,2.762,15.6,9.1,-4.6,3.2
2763,2.763,11.5,8.7,-3.7,-3.5
2764,2.764,2.5,3.3,1.4,-6.2
2765,2.765,1.4,1.2,-9.4,-2.4
2766,2.766,-3.8,4.5,-28.1,-6.2
2767,2.767,-3.5,1.9,-1.6,-9.9
2768,2.768,1.3,2.5,21.0,-4.2
2769,2.769,11.1,2.1,11.6,2.8
2770,2.770,9.8,2.6,3.1,-0.3
2771,2.771,3.9,0.4,-4.7,-1.5
2772,2.772,4.9,-2.4,1.8,-2.6
2773,2.773,-9.6,-6.4,-4.7,-2.2
2774,2.774,-32.6,-14.5,-3.2,-4.5
2775,2.775,-17.3,-15.7,8.5,-4.4
2776,2.776,-14.5,-12.5,0.4,-9.7
2777,2.777,-1.9,-9.7,-4.2,-0.3
2778,2.778,-13.3,-8.8,-3.3,-2.3
2779,2.779,-19.5,-11.2,-2.5,-9.4
2780,2.780,-21.3,-9.0,-1.9,-9.0
2781,2.781,-9.3,-3.0,4.4,-8.7
2782,2.782,1.7,-2.2,-0.5,-0.8
2783,2.783,8.8,-0.0,1.5,1.8
2784,2.784,10.1,0.6,-6.9,-4.3
2785,2.785,13.5,-2.4,-14.8,-8.0
2786,2.786,18.8,1.4,-8.5,-6.1
2787,2.787,15.9,1.9,-2.8,-9.3
2788,2.788,18.6,1.5,-5.6,-12.3
2789,2.789,17.8,2.0,-16.9,-7.0
2790,2.790,11.2,0.3,-18.8,-13.3
2791,2.791,1.5,3.4,-12.0,-8.9
2792,2.792,5.3,3.1,-8.4,-8.8
2793,2.793,4.1,3.5,-16.8,-12.3
2794,2.794,3.1,6.6,-5.3,-17.6
2795,2.795,9.7,11.1,-0.7,-15.9
2796,2.796,3.5,15.3,0.5,-14.4
2797,2.797,1.0,14.8,-0.8,-11.8
2798,2.798,-7.2,15.3,-4.2,-8.4
2799,2.799,-2.0,13.2,-3.1,-7.0
2800,2.800,6.7,9.5,-4.0,-9.6
2801,2.801,7.7,5.1,-4.7,-14.8
2802,2.802,12.9,3.3,-2.1,-18.4
2803,2.803,7.9,4.8,3.2,-14.2
2804,2.804,8.7,1.4,2.8,-3.7
2805,2.805,14.2,-5.3,-5.8,-4.3
2806,2.806,6.0,-14.0,-24.9,-4.6
2807,2.807,2.8,-3.4,-10.5,-2.5
2808,2.808,1.7,3.6,23.0,-6.6
2809,2.809,-11.7,-0.2,10.1,7.4
2810,2.810,-21.4,-6.1,6.6,10.5
2811,2.811,-26.7,-7.2,25.9,16.6
2812,2.812,-22.2,1.5,30.0,25.2
2813,2.813,-18.2,-9.1,27.8,30.7
2814,2.814,-11.9,-19.0,31.4,40.6
2815,2.815,-6.3,-12.6,39.8,39.1
2816,2.816,3.1,-13.8,33.9,47.6
2817,2.817,1.6,-19.1,32.8,52.0
2818,2.818,0.3,-18.2,43.2,56.2
2819,2.819,3.2,-5.0,49.4,58.7
2820,2.820,6.0,8.2,42.6,70.4
2821,2.821,4.9,16.7,42.2,73.5
2822,2.822,-0.9,15.2,34.2,76.6
2823,2.823,-7.7,13.7,29.4,89.0
2824,2.824,-17.6,12.4,46.4,83.7
2825,2.825,-24.4,13.5,58.9,102.4
2826,2.826,-32.8,1.7,53.7,134.0
2827,2.827,-36.1,-6.1,49.1,139.8
2828,2.828,-25.6,-19.1,65.6,152.5
2829,2.829,-15.9,-17.4,52.0,164.2
2830,2.830,-7.0,-16.0,43.4,156.5
2831,2.831,-3.7,-20.2,35.7,138.5
2832,2.832,3.6,-11.1,34.9,106.9
2833,2.833,4.4,-5.3,42.8,76.6
2834,2.834,3.3,-4.3,29.1,57.3
2835,2.835,-0.8,-1.4,12.7,39.7
2836,2.836,-1.7,-4.1,-2.8,23.7
2837,2.837,0.1,-5.0,-8.6,3.0
2838,2.838,4.2,1.5,-13.8,-21.5
2839,2.839,1.4,2.3,-39.4,-31.1
2840,2.840,6.7,1.4,-50.2,-70.7
2841,2.841,10.2,6.4,-60.1,-97.7
2842,2.842,8.1,6.9,-69.1,-122.3
2843,2.843,13.3,13.4,-82.9,-144.8
2844,2.844,18.2,23.0,-65.3,-157.3
2845,2.845,18.7,19.1,-81.4,-161.2
2846,2.846,26.4,13.1,-87.9,-171.7
2847,2.847,27.3,12.0,-59.7,-193.7
2848,2.848,28.2,11.0,-55.9,-191.6
2849,2.849,20.1,8.3,-60.0,-169.6
2850,2.850,21.1,7.4,-57.1,-179.6
2851,2.851,18.1,-0.7,-60.6,-188.9
2852,2.852,17.2,0.2,-69.5,-182.5
2853,2.853,16.3,-2.7,-67.7,-190.5
2854,2.854,14.1,-3.7,-84.4,-198.1
2855,2.855,9.4,-7.8,-74.7,-201.3
2856,2.856,5.2,-2.8,-77.4,-211.4
2857,2.857,3.6,-4.7,-80.0,-205.2
2858,2.858,6.1,-1.8,-57.4,-185.5
2859,2.859,3.9,4.1,-68.4,-147.3
2860,2.860,9.2,6.5,-72.5,-110.9
2861,2.861,8.4,2.8,-65.2,-88.1
2862,2.862,11.7,0.9,-63.8,-67.6
2863,2.863,2.7,-0.9,-34.9,-40.9
2864,2.864,-3.8,-1.4,-32.0,-2.1
2865,2.865,-11.9,0.0,-44.2,23.1
2866,2.866,-8.8,-4.0,-14.9,25.8
2867,2.867,-23.2,-5.6,-3.8,37.2
2868,2.868,-26.2,-7.2,-7.8,59.1
2869,2.869,-15.7,-5.8,9.5,61.0
2870,2.870,-13.7,-9.8,5.0,69.9
2871,2.871,-18.7,-6.1,0.7,84.5
2872,2.872,-14.0,-9.5,-3.3,85.3
2873,2.873,-4.0,-4.6,8.0,85.8
2874,2.874,-2.6,-2.7,27.5,81.1
2875,2.875,-13.1,0.3,29.0,94.9
2876,2.876,-14.3,3.9,30.3,94.9
2877,2.877,-10.4,7.3,49.8,98.4
2878,2.878,-11.4,5.1,68.1,104.9
2879,2.879,-8.1,-1.1,54.4,117.0
2880,2.880,-3.2,-9.1,69.3,124.5
2881,2.881,4.9,-10.1,74.5,131.2
2882,2.882,8.2,-9.2,83.0,133.9
2883,2.883,1.6,-1.3,83.7,136.2
2884,2.884,0.9,4.0,84.3,146.2
2885,2.885,-3.0,8.8,90.5,136.7
2886,2.886,-7.9,18.5,80.5,130.9
2887,2.887,2.1,30.3,62.1,125.5
2888,2.888,6.4,28.8,79.1,111.2
2889,2.889,10.4,18.9,76.2,104.8
2890,2.890,11.6,12.4,86.0,92.7
2891,2.891,6.4,-0.4,68.4,110.2
2892,2.892,5.6,-2.1,47.3,91.6
2893,2.893,1.3,-3.6,83.2,60.9
2894,2.894,8.6,-2.2,78.1,64.4
2895,2.895,-0.1,-3.5,55.5,60.3
2896,2.896,-10.6,-11.7,51.3,56.7
2897,2.897,-0.6,-12.8,32.8,41.3
2898,2.898,0.7,-8.1,22.9,27.4
2899,2.899,-12.1,-5.5,7.8,15.1
2900,2.900,3.5,-8.1,5.4,4.0
2901,2.901,1.5,-8.9,-1.8,-10.1
2902,2.902,-0.3,-13.5,-8.1,-18.9
2903,2.903,8.3,-14.2,-9.7,-26.6
2904,2.904,9.8,-11.6,-10.9,-30.3
2905,2.905,8.5,-14.1,-15.4,-33.4
2906,2.906,1.9,-8.4,-16.1,-30.8
2907,2.907,-11.0,-10.9,-16.7,-28.4
2908,2.908,-16.1,-8.7,-24.9,-34.3
2909,2.909,-2.0,-6.9,-39.3,-41.5
2910,2.910,7.5,-9.9,-27.8,-45.7
2911,2.911,9.2,-5.0,-32.4,-47.1
2912,2.912,7.6,-0.5,-36.5,-44.2
2913,2.913,3.5,8.4,-33.9,-53.8
2914,2.914,-0.4,4.5,-31.4,-53.4
2915,2.915,-11.0,7.9,-31.5,-52.8
2916,2.916,-9.7,13.2,-31.4,-49.5
2917,2.917,-3.2,8.3,-31.2,-51.0
2918,2.918,-4.3,-5.0,-40.7,-43.8
2919,2.919,-11.7,-3.2,-18.1,-44.7
2920,2.920,-5.0,8.8,-7.8,-40.2
2921,2.921,-9.4,13.4,-20.5,-35.9
2922,2.922,-3.8,9.2,-26.8,-39.1
2923,2.923,-1.7,15.7,-27.9,-42.0
2924,2.924,2.9,19.1,-7.9,-43.3
2925,2.925,-0.0,18.0,-19.4,-33.5
2926,2.926,0.5,13.2,-20.6,-28.5
2927,2.927,0.0,5.3,-17.5,-36.7
2928,2.928,5.8,6.3,-10.9,-18.4
2929,2.929,9.9,-0.4,-8.2,-19.3
2930,2.930,7.8,0.5,-5.8,-15.9
2931,2.931,8.5,-6.7,-12.0,-12.9
2932,2.932,6.8,-3.7,-15.1,-13.5
2933,2.933,1.9,-8.1,3.3,-17.2
2934,2.934,2.7,-8.8,-3.5,-9.2
2935,2.935,-1.4,-13.8,-5.1,-9.6
2936,2.936,-5.1,-22.3,-10.8,-12.4
2937,2.937,-1.5,-16.3,-23.6,-12.7
2938,2.938,-1.1,-19.4,2.7,-15.1
2939,2.939,5.1,-20.2,21.7,-1.4
2940,2.940,7.8,-12.2,-8.4,4.7
2941,2.941,7.1,3.9,-4.0,-3.6
2942,2.942,5.0,15.5,-7.6,-4.9
2943,2.943,0.5,13.4,-4.1,-3.3
2944,2.944,-6.0,11.7,-1.0,0.6
2945,2.945,5.6,30.8,-3.7,-2.8
2946,2.946,4.1,33.4,-6.2,4.6
2947,2.947,-2.8,35.7,-8.5,3.6
2948,2.948,-1.5,29.6,-2.4,-4.5
2949,2.949,-2.5,12.6,-4.4,5.0
2950,2.950,-5.6,5.9,-2.9,11.3
2951,2.951,-0.7,-8.6,-7.8,5.2
2952,2.952,3.8,-14.1,-6.7,-0.3
2953,2.953,-3.3,-15.7,-5.8,6.1
2954,2.954,3.5,-4.6,-7.2,8.4
2955,2.955,0.9,-11.5,-4.4,4.1
2956,2.956,0.2,-20.4,-5.7,8.8
2957,2.957,-6.4,-4.9,-3.5,3.9
2958,2.958,-5.4,1.6,-4.7,6.5
2959,2.959,-6.2,3.6,-2.9,2.5
2960,2.960,0.5,-1.3,-0.0,-1.4
2961,2.961,1.4,6.6,3.8,1.3
2962,2.962,3.9,8.2,-4.7,7.1
2963,2.963,3.2,4.5,-13.3,2.3
2964,2.964,3.9,3.6,2.2,-0.5
2965,2.965,4.5,0.6,13.3,5.7
2966,2.966,0.9,3.7,-1.7,9.8
2967,2.967,3.4,4.7,-4.0,3.8
2968,2.968,9.3,2.5,-2.7,2.8
2969,2.969,8.2,-2.1,-2.7,0.5
2970,2.970,9.0,1.6,7.8,3.5
2971,2.971,6.9,9.0,-8.2,4.9
2972,2.972,3.7,0.4,-2.3,8.3
2973,2.973,-1.6,4.0,10.6,1.6
2974,2.974,2.0,3.1,1.6,12.8
2975,2.975,-6.5,-9.4,21.6,4.7
2976,2.976,-7.6,-7.6,18.5,8.6
2977,2.977,-14.9,-15.3,-4.6,9.7
2978,2.978,-4.2,-13.9,16.5,-5.9
2979,2.979,2.9,-20.4,-8.9,8.5
2980,2.980,-3.5,-16.9,7.6,14.0
2981,2.981,-9.4,-15.9,16.5,8.6
2982,2.982,-19.0,-13.0,2.3,3.8
2983,2.983,-17.7,-6.8,-0.5,-3.5
2984,2.984,-2.4,-6.0,1.5,-4.9
2985,2.985,-0.3,-3.9,7.5,-4.0
2986,2.986,1.5,-4.5,9.1,-3.1
2987,2.987,3.1,-3.9,-6.7,1.6
2988,2.988,10.9,1.0,-21.6,-1.2
2989,2.989,6.7,0.4,6.7,-10.2
2990,2.990,-7.6,1.0,35.2,-11.4
2991,2.991,-5.8,1.5,16.4,0.2
2992,2.992,-17.9,3.0,12.8,4.7
2993,2.993,-22.6,3.5,3.5,-2.5
2994,2.994,-7.0,5.5,0.6,-3.9
2995,2.995,-5.0,11.0,-7.1,-2.9
2996,2.996,0.6,13.4,8.8,-14.7
2997,2.997,5.7,6.7,6.6,-7.0
2998,2.998,4.0,0.5,4.7,0.0
2999,2.999,5.3,-0.3,2.9,1.2
3000,3.000,6.5,0.3,7.4,2.3
3001,3.001,7.5,-4.4,0.3,5.3
3002,3.002,8.5,-8.7,4.1,4.3
3003,3.003,7.4,-6.2,5.1,-1.9
3004,3.004,8.2,-6.8,8.2,-1.1
3005,3.005,10.5,-6.6,9.1,1.0
3006,3.006,8.2,-11.2,10.0,2.9
3007,3.007,6.2,-7.2,-2.1,1.1
3008,3.008,4.3,-2.4,-17.7,4.8
3009,3.009,2.7,0.8,-15.6,0.3
3010,3.010,-1.8,6.0,-2.3,0.8
3011,3.011,-2.5,8.0,2.9,-4.1
3012,3.012,3.4,4.6,13.8,5.8
3013,3.013,-0.8,3.8,6.8,12.9
3014,3.014,-7.5,1.0,-4.9,9.1
3015,3.015,-12.0,1.3,-0.2,3.3
3016,3.016,-4.9,-4.6,-1.4,6.5
3017,3.017,-2.2,2.4,-2.6,1.8
3018,3.018,-1.4,1.3,-1.4,2.8
3019,3.019,0.9,0.2,-4.5,2.1
3020,3.020,-4.3,2.4,-5.3,2.9
3021,3.021,-3.7,0.1,-2.6,1.1
3022,3.022,-6.7,-0.7,3.2,-1.8
3023,3.023,-10.4,2.1,6.9,6.5
3024,3.024,-6.0,4.6,-2.8,3.2
3025,3.025,-5.5,7.9,-6.9,-1.9
3026,3.026,2.6,14.4,-5.4,-2.7
3027,3.027,-0.9,22.9,-6.4,1.9
3028,3.028,8.7,16.9,-5.2,-1.9
3029,3.029,4.8,11.4,-4.1,4.9
3030,3.030,10.6,12.2,-6.6,6.0
3031,3.031,5.3,4.1,-2.5,3.9
3032,3.032,10.1,-3.4,1.3,3.4
3033,3.033,7.5,-8.3,-1.8,9.6
3034,3.034,-1.3,-18.1,1.3,2.6
3035,3.035,2.1,-24.7,5.2,7.7
3036,3.036,3.2,-33.0,1.9,8.9
3037,3.037,-1.5,-23.4,2.4,5.2
3038,3.038,8.2,-19.6,5.4,7.6
3039,3.039,7.0,-18.6,1.5,9.9
3040,3.040,-1.1,-17.5,0.2,8.4
3041,3.041,-0.0,-4.9,4.9,2.8
3042,3.042,2.9,0.2,2.1,8.8
3043,3.043,-1.5,8.0,-3.7,7.0
3044,3.044,-5.4,12.2,0.5,2.7
3045,3.045,5.6,13.5,1.4,-1.1
3046,3.046,10.3,12.4,3.5,3.0
3047,3.047,9.1,5.1,3.2,3.8
3048,3.048,7.9,9.9,8.3,4.6
3049,3.049,9.1,10.8,6.6,2.2
3050,3.050,8.1,8.4,2.6,2.9
3051,3.051,5.3,13.5,2.3,2.3
3052,3.052,4.5,15.5,5.9,1.3
3053,3.053,-1.0,13.8,7.4,5.8
3054,3.054,5.7,5.7,3.9,8.0
3055,3.055,-2.2,-2.4,5.5,4.7
3056,3.056,-5.2,-3.4,4.5,0.5
3057,3.057,-6.1,7.4,3.4,0.3
3058,3.058,-12.2,14.5,1.8,-4.2
3059,3.059,-3.3,13.3,-3.1,-4.4
3060,3.060,5.0,12.3,0.7,3.7
3061,3.061,10.3,5.0,1.6,-1.2
3062,3.062,13.3,4.2,-3.6,-3.8
3063,3.063,16.0,7.0,0.2,-7.9
3064,3.064,18.5,9.6,2.3,-9.9
3065,3.065,16.5,1.7,-3.0,-3.0
3066,3.066,8.0,7.2,-0.6,-3.6
3067,3.067,-0.1,10.2,6.8,-4.2
3068,3.068,-7.4,6.0,-7.6,-1.8
3069,3.069,-21.8,-1.1,-9.6,-3.4
3070,3.070,-31.9,-11.3,3.7,-5.2
3071,3.071,-29.7,-8.3,-5.6,-2.0
3072,3.072,-31.5,-12.5,-0.4,-3.4
3073,3.073,-12.3,-6.8,1.3,-6.7
3074,3.074,-4.7,2.9,-14.3,-7.8
3075,3.075,2.2,12.1,-20.5,-9.7
3076,3.076,0.2,6.4,8.1,-15.1
3077,3.077,2.2,3.4,12.2,-7.8
3078,3.078,-2.9,0.6,1.2,-1.0
3079,3.079,-1.3,1.6,-2.2,-3.6
3080,3.080,-2.6,-0.6,-5.2,-7.6
3081,3.081,-1.2,1.6,-2.5,-6.9
3082,3.082,-9.4,-8.1,0.0,-2.4
3083,3.083,-1.9,-17.9,-2.2,-5.4
3084,3.084,-6.7,-14.0,-0.2,-2.9
3085,3.085,-5.8,-3.4,5.4,-4.4
3086,3.086,-1.8,0.8,3.7,-0.5
3087,3.087,4.7,-8.2,-10.5,0.8
3088,3.088,9.1,-16.3,-8.8,-5.9
3089,3.089,5.1,-23.7,-7.2,-8.7
3090,3.090,2.9,-26.5,-2.6,-1.8
3091,3.091,8.8,-16.7,-1.4,-3.0
3092,3.092,-1.7,-12.8,-8.1,-2.4
3093,3.093,-6.0,-4.6,-9.3,-0.4
3094,3.094,3.0,2.8,-6.4,-7.3
3095,3.095,1.8,3.8,-1.8,-8.5
3096,3.096,4.9,6.5,-15.2,-0.1
3097,3.097,9.6,5.7,-24.8,-1.6
3098,3.098,8.6,5.0,-2.6,-7.3
3099,3.099,7.7,3.0,0.2,-6.8
3100,3.100,6.9,3.6,-2.7,-4.6
3101,3.101,6.1,3.1,4.6,-7.4
3102,3.102,4.2,1.6,-2.4,-1.3
3103,3.103,2.6,2.9,-13.1,0.9
3104,3.104,-1.0,0.8,-19.0,-3.6
3105,3.105,-3.3,2.5,-0.2,-4.8
3106,3.106,0.2,7.5,12.2,-13.9
3107,3.107,-1.4,-0.6,-4.2,-11.0
3108,3.108,-0.3,-3.9,-6.5,-8.3
3109,3.109,-5.8,-4.9,-8.7,-13.7
3110,3.110,-3.7,-9.4,-7.3,-9.8
3111,3.111,-0.6,-21.6,-2.9,-3.1
3112,3.112,-3.7,-23.4,6.7,1.2
3113,3.113,-11.9,-12.6,2.6,1.6
3114,3.114,-17.9,-8.5,-1.2,1.9
3115,3.115,-4.1,-2.2,-6.7,5.0
3116,3.116,-13.7,3.6,5.6,3.8
3117,3.117,-19.0,6.6,20.9,3.9
3118,3.118,-14.4,3.6,14.4,9.3
3119,3.119,-4.7,0.8,12.2,11.2
3120,3.120,1.6,-0.2,-7.0,8.6
3121,3.121,-2.0,3.3,-19.9,12.7
3122,3.122,-3.2,1.2,14.4,3.3
3123,3.123,-6.2,5.2,9.3,9.3
3124,3.124,-1.9,7.7,-4.4,7.8
3125,3.125,-2.8,5.1,15.8,-0.1
3126,3.126,0.8,7.1,11.9,12.1
3127,3.127,6.6,4.2,8.4,10.0
3128,3.128,5.7,-1.3,5.1,5.0
3129,3.129,7.8,9.0,2.2,3.2
3130,3.130,4.5,10.2,4.6,6.7
3131,3.131,9.8,11.4,2.2,5.3
3132,3.132,16.3,10.2,16.6,8.1
3133,3.133,11.8,11.2,10.8,8.7
3134,3.134,11.0,12.1,2.1,14.6
3135,3.135,13.1,5.8,12.9,2.3
3136,3.136,12.4,0.1,3.0,3.7
3137,3.137,11.8,3.6,-3.6,20.7
3138,3.138,3.7,2.9,13.9,13.7
3139,3.139,2.5,4.6,26.4,15.6
3140,3.140,9.9,8.2,1.1,17.2
3141,3.141,7.0,13.7,-9.1,11.9
3142,3.142,4.3,12.9,18.5,4.0
3143,3.143,3.5,3.0,7.4,13.7
3144,3.144,2.7,-9.9,-2.7,7.1
3145,3.145,6.0,-4.7,-24.1,1.1
3146,3.146,4.2,-3.1,17.7,-0.1
3147,3.147,3.8,-4.4,-0.2,6.6
3148,3.148,4.3,-8.2,-5.6,2.1
3149,3.149,2.2,-11.6,-0.7,-3.5
3150,3.150,-3.9,-10.5,-5.1,-7.2
3151,3.151,-6.4,-7.6,-9.2,-3.9
3152,3.152,4.1,-1.4,-5.4,-9.2
3153,3.153,2.8,-0.5,-8.7,-2.6
3154,3.154,4.1,4.6,0.5,-3.5
3155,3.155,7.6,2.7,3.3,-4.2
3156,3.156,2.4,-1.4,5.9,-3.5
3157,3.157,-4.3,1.3,3.8,-0.1
3158,3.158,-3.4,3.8,1.8,-3.0
3159,3.159,-13.8,-1.9,-3.7,-0.3
3160,3.160,-20.7,-4.3,1.6,-6.7
3161,3.161,-14.2,5.2,3.2,-3.9
3162,3.162,-10.6,1.4,-0.9,0.2
3163,3.163,-9.5,-4.3,-2.0,1.1
3164,3.164,-6.5,-3.2,-0.8,1.8
3165,3.165,-0.3,-2.2,2.5,2.6
3166,3.166,0.6,2.3,-0.2,0.1
3167,3.167,1.5,4.8,-11.6,-1.2
3168,3.168,-0.4,8.5,-3.6,-5.1
3169,3.169,-0.8,5.3,0.7,-8.6
3170,3.170,7.4,8.3,-3.1,-3.0
3171,3.171,6.2,8.6,-5.4,0.8
3172,3.172,7.5,1.6,-4.1,1.6
3173,3.173,2.3,-1.3,-5.0,5.0
3174,3.174,-0.5,-7.4,-2.0,2.2
3175,3.175,-1.3,-13.0,-4.6,-0.3
3176,3.176,-2.0,-6.4,-6.9,4.3
3177,3.177,-1.2,-5.5,-6.1,-1.0
3178,3.178,2.2,-4.7,1.2,-1.6
3179,3.179,1.7,-9.7,-3.5,-0.8
3180,3.180,4.4,-13.0,8.1,-3.6
3181,3.181,4.9,-4.0,31.7,-5.0
3182,3.182,6.3,-0.1,1.3,-3.5
3183,3.183,7.5,8.1,-27.2,3.3
3184,3.184,2.1,7.1,-8.6,2.5
3185,3.185,-5.1,8.0,1.6,-1.8
3186,3.186,-11.8,1.8,4.8,0.7
3187,3.187,1.5,7.4,7.5,0.0
3188,3.188,3.4,5.2,0.0,-1.8
3189,3.189,12.0,3.3,2.4,-4.7
3190,3.190,7.3,3.8,12.9,-0.9
3191,3.191,3.2,0.1,-0.3,0.7
3192,3.192,-5.9,-7.4,-26.2,4.8
3193,3.193,-0.0,-21.3,-0.2,-2.2
3194,3.194,3.1,-27.0,3.2,-3.1
3195,3.195,-3.7,-25.3,0.2,-5.7
3196,3.196,-17.0,-11.2,-2.5,-6.5
3197,3.197,-26.5,-1.8,-10.0,-7.1
3198,3.198,-24.8,3.3,1.5,-5.1
3199,3.199,-20.2,4.8,3.7,-3.3
3200,3.200,-7.4,8.9,-5.8,-0.6
3201,3.201,-5.8,7.5,-4.0,-0.0
3202,3.202,-4.3,6.4,3.8,-6.6
3203,3.203,5.6,9.4,5.2,-1.7
3204,3.204,6.8,-1.3,-1.3,11.6
3205,3.205,12.6,-5.5,-2.3,-5.5
3206,3.206,7.3,-1.7,5.1,-12.2
3207,3.207,-1.5,-0.6,2.3,6.7
3208,3.208,-7.4,4.6,3.3,4.3
3209,3.209,-2.1,5.6,5.7,2.2
3210,3.210,2.6,-5.9,-5.2,0.2
3211,3.211,3.5,-10.6,2.7,-1.6
3212,3.212,4.2,-3.5,1.4,-3.2
3213,3.213,3.4,0.3,-10.3,-1.6
3214,3.214,-6.5,3.7,-5.6,-2.9
3215,3.215,0.5,2.6,1.5,-1.5
3216,3.216,7.0,5.5,2.9,-0.4
3217,3.217,5.8,9.9,6.3,9.3
3218,3.218,0.4,12.3,7.4,2.9
3219,3.219,-0.6,13.0,8.4,4.1
3220,3.220,-3.3,14.9,4.0,20.1
3221,3.221,0.6,9.5,-6.4,13.3
3222,3.222,4.1,7.3,6.5,7.1
3223,3.223,2.1,6.7,15.1,5.3
3224,3.224,5.0,2.5,7.3,3.6
3225,3.225,10.8,1.9,3.2,2.2
3226,3.226,9.9,0.4,2.0,0.8
3227,3.227,6.2,2.6,3.2,-0.4
3228,3.228,4.2,-2.8,-2.1,-3.8
3229,3.229,3.6,-6.4,-3.0,-4.8
3230,3.230,6.2,-9.8,-5.6,0.1
3231,3.231,2.7,-6.8,-3.1,-0.8
3232,3.232,-0.4,-5.3,-12.5,0.1
3233,3.233,4.0,-4.8,-31.9,-0.6
3234,3.234,2.2,-3.5,9.9,-7.8
3235,3.235,-4.9,-3.1,15.9,-1.0
3236,3.236,-9.8,-4.9,10.5,7.0
3237,3.237,-7.3,-1.2,-14.2,-0.3
3238,3.238,-4.9,2.2,-9.6,-9.0
3239,3.239,-7.1,3.4,2.7,-5.5
3240,3.240,-3.9,0.5,21.4,4.2
3241,3.241,-3.5,-5.0,4.6,2.9
3242,3.242,1.3,-7.5,-4.5,1.9
3243,3.243,4.5,0.5,-23.9,-3.4
3244,3.244,3.9,-2.7,9.1,-8.2
3245,3.245,1.2,-5.6,4.6,-7.2
3246,3.246,0.6,2.3,-7.6,0.0
3247,3.247,-3.5,7.6,-3.9,-2.8
3248,3.248,-2.1,10.5,-0.5,-3.7
3249,3.249,-3.7,-1.0,-3.5,-7.7
3250,3.250,-3.3,0.5,-0.8,-7.0
3251,3.251,-8.7,-0.9,-3.3,-6.3
3252,3.252,-9.6,-2.2,-1.0,-1.0
3253,3.253,-9.0,3.6,-3.1,-3.1
3254,3.254,-12.1,2.5,-1.2,-2.5
3255,3.255,-10.6,1.4,-2.9,-7.9
3256,3.256,-3.2,2.2,-4.4,-10.1
3257,3.257,-0.2,-6.7,-0.2,-6.8
3258,3.258,4.6,-22.0,3.7,-2.7
3259,3.259,2.0,-32.5,-2.2,-0.1
3260,3.260,4.4,-11.6,7.5,2.4
3261,3.261,0.7,2.2,8.8,3.7
3262,3.262,2.6,4.7,7.7,5.7
3263,3.263,3.2,-6.9,-8.2,9.7
3264,3.264,5.8,-4.8,-10.5,6.0
3265,3.265,9.3,4.6,12.6,3.6
3266,3.266,13.3,2.9,15.7,6.6
3267,3.267,13.8,4.5,-3.7,12.7
3268,3.268,12.4,0.4,14.0,11.8
3269,3.269,10.3,-6.1,2.6,9.4
3270,3.270,9.9,-7.2,8.9,4.4
3271,3.271,5.9,-1.9,14.5,6.3
3272,3.272,4.9,5.3,4.9,4.0
3273,3.273,1.3,12.0,-17.6,2.3
3274,3.274,-6.1,14.7,-14.5,-4.8
3275,3.275,-7.1,10.6,-11.8,-5.8
3276,3.276,-4.1,7.0,-4.2,-8.4
3277,3.277,-12.0,10.3,7.3,-9.2
3278,3.278,-17.2,1.3,1.0,-4.2
3279,3.279,-12.3,-10.4,-19.9,3.0
3280,3.280,-9.6,-15.0,-0.5,-3.7
3281,3.281,-8.7,-2.2,7.1,-4.6
3282,3.282,-3.5,3.0,0.3,-3.8
3283,3.283,-1.5,4.6,-10.2,-1.6
3284,3.284,2.8,8.9,10.7,-4.9
3285,3.285,4.5,12.8,2.5,-1.9
3286,3.286,1.2,18.7,-5.0,1.8
3287,3.287,7.9,19.8,-11.8,-5.6
3288,3.288,16.8,15.0,-9.7,-8.7
3289,3.289,15.9,7.1,3.5,-5.7
3290,3.290,15.0,1.9,-1.6,-1.3
3291,3.291,12.2,-2.9,3.1,-0.4
3292,3.292,6.2,3.4,-12.5,9.1
3293,3.293,-2.5,1.0,2.1,-2.6
3294,3.294,1.1,-9.8,19.2,-1.0
3295,3.295,13.0,-27.1,12.4,11.9
3296,3.296,17.9,-1.7,14.5,13.6
3297,3.297,13.9,1.7,12.7,5.9
3298,3.298,12.8,-1.2,11.0,13.0
3299,3.299,21.1,7.2,9.5,19.6
3300,3.300,24.4,9.8,5.3,16.3
3301,3.301,23.7,12.1,6.6,11.0
3302,3.302,10.6,14.3,10.0,15.9
3303,3.303,1.3,12.6,2.6,13.4
3304,3.304,-0.2,11.0,-6.2,11.0
3305,3.305,-23.5,6.4,11.5,4.5
3306,3.306,-33.5,-3.4,-1.2,7.2
3307,3.307,-24.1,-17.6,-3.5,1.6
3308,3.308,-15.6,-15.7,-14.0,-7.8
3309,3.309,-7.9,-13.9,-34.9,-6.4
3310,3.310,-10.0,-2.9,-15.5,-19.3
3311,3.311,-11.9,1.3,12.3,-20.9
3312,3.312,-9.8,0.2,-6.3,-9.9
3313,3.313,-11.3,-7.9,-3.0,-8.5
3314,3.314,-9.6,-15.1,-6.2,-7.2
3315,3.315,-10.8,-29.5,-9.0,-3.7
3316,3.316,-9.4,-27.3,-11.6,-8.9
3317,3.317,-3.3,-10.1,-13.9,-7.9
3318,3.318,2.1,-3.2,-7.8,-3.4
3319,3.319,1.3,3.1,1.6,-4.2
3320,3.320,2.4,1.4,10.1,-15.1
3321,3.321,1.7,3.2,14.6,8.4
3322,3.322,-4.7,7.9,-6.9,11.8
3323,3.323,-0.2,12.2,-16.2,2.6
3324,3.324,-7.3,8.5,-8.1,-5.7
3325,3.325,-6.2,2.7,19.6,-8.2
3326,3.326,-1.6,-2.5,15.7,-1.4
3327,3.327,5.7,2.4,12.1,13.2
3328,3.328,6.8,-3.7,-3.4,7.6
3329,3.329,4.3,-14.1,-0.9,-1.1
3330,3.330,0.4,-18.2,-3.6,-2.7
3331,3.331,-1.6,-9.1,-10.6,-4.1
3332,3.332,-10.1,1.6,-4.6,-15.9
3333,3.333,-13.4,5.8,-10.4,-8.1
3334,3.334,-3.6,2.0,-19.3,7.5
3335,3.335,0.4,8.0,-14.9,-7.2
3336,3.336,6.3,9.1,6.2,-16.7
3337,3.337,7.5,10.1,3.0,2.2
3338,3.338,8.6,9.2,-0.1,4.6
3339,3.339,6.0,11.7,-2.9,2.3
3340,3.340,5.3,13.9,-10.0,0.1
3341,3.341,6.1,7.9,-4.0,-1.8
3342,3.342,9.5,7.1,-2.4,-10.5
3343,3.343,6.6,13.7,2.4,-2.8
3344,3.344,5.1,9.3,3.7,4.1
3345,3.345,1.7,-1.1,-15.2,2.7
3346,3.346,5.8,-8.2,-7.9,-5.6
3347,3.347,2.1,-9.5,-1.4,-8.8
3348,3.348,0.7,-20.1,-7.9,-8.0
3349,3.349,-2.4,-21.4,-2.6,-7.2
3350,3.350,-2.0,-12.4,-1.2,4.7
3351,3.351,0.5,-1.8,12.7,2.9
3352,3.352,1.4,8.0,18.0,4.3
3353,3.353,4.1,14.5,9.2,8.4
3354,3.354,1.5,11.0,4.3,14.8
3355,3.355,1.8,3.7,8.2,4.1
3356,3.356,2.5,6.6,4.1,2.5
3357,3.357,6.5,14.5,-2.0,3.7
3358,3.358,9.4,0.6,3.1,2.4
3359,3.359,1.2,-9.0,-2.0,-7.3
3360,3.360,-2.4,-14.2,0.4,-3.6
3361,3.361,-1.4,-18.9,5.9,9.2
3362,3.362,-4.5,-9.1,6.5,14.2
3363,3.363,-7.2,-2.8,-3.5,3.2
3364,3.364,1.5,5.3,-16.5,-1.1
3365,3.365,-4.5,2.1,-8.0,-10.3
3366,3.366,-7.7,-0.9,-0.4,-11.5
3367,3.367,0.9,3.5,0.9,-1.9
3368,3.368,1.8,-2.2,-5.6,1.9
3369,3.369,-3.7,-3.0,4.9,5.3
3370,3.370,-8.7,-3.6,9.1,10.6
3371,3.371,-8.0,-3.1,5.2,9.5
3372,3.372,-10.6,-2.7,-3.0,1.5
3373,3.373,-11.2,4.6,-1.6,-2.1
3374,3.374,-3.4,1.1,14.4,-1.1
3375,3.375,-6.8,-5.7,12.2,-0.2
3376,3.376,-11.9,-12.5,14.3,5.9
3377,3.377,-14.8,-2.8,12.5,8.3
3378,3.378,-12.6,-4.1,10.9,8.9
3379,3.379,-6.3,-0.7,9.4,8.3
3380,3.380,-0.4,-3.9,8.1,0.4
3381,3.381,-4.7,-1.0,-0.9,-0.7
3382,3.382,-8.6,-1.9,5.0,-5.5
3383,3.383,-13.4,0.5,21.1,-2.9
3384,3.384,-10.8,1.3,0.5,9.1
3385,3.385,-2.9,-0.7,-2.1,10.7
3386,3.386,0.3,-0.2,31.0,-0.2
3387,3.387,1.0,3.5,35.7,-1.6
3388,3.388,3.6,4.9,-1.0,-0.3
3389,3.389,-2.8,7.0,4.1,-3.7
3390,3.390,-0.7,0.9,-0.2,3.7
3391,3.391,-1.7,-1.8,-4.0,6.7
3392,3.392,-3.9,-1.1,-0.1,4.1
3393,3.393,1.2,1.0,10.3,3.3
3394,3.394,4.5,-2.3,7.5,1.2
3395,3.395,4.9,0.6,-11.7,-3.3
3396,3.396,7.6,4.2,-3.8,-1.4
3397,3.397,4.6,10.7,-1.3,-5.0
3398,3.398,2.9,11.6,-3.1,-2.5
3399,3.399,0.5,13.9,-4.6,-5.4
3400,3.400,5.5,11.8,-16.3,-2.5
3401,3.401,7.4,1.9,-14.5,-7.2
3402,3.402,9.0,-10.9,7.1,-11.7
3403,3.403,5.8,-19.4,-7.9,-2.6
3404,3.404,8.2,-24.0,-4.8,4.0
3405,3.405,6.5,-8.3,-2.0,-6.4
3406,3.406,5.1,2.3,-8.5,3.5
3407,3.407,-1.2,11.9,-6.2,7.5
3408,3.408,6.6,20.6,-0.2,-0.6
3409,3.409,5.4,34.8,-8.5,-1.6
3410,3.410,4.2,36.7,-16.0,-4.4
3411,3.411,1.4,38.4,-19.9,-12.3
3412,3.412,-1.1,27.5,-13.1,-11.1
3413,3.413,2.4,9.0,2.6,-2.2
3414,3.414,0.3,-18.8,-7.5,1.3
3415,3.415,9.2,-22.5,-12.8,-3.9
3416,3.416,15.6,-12.3,-4.0,-4.7
3417,3.417,14.4,-3.1,-14.6,-1.9
3418,3.418,11.2,-5.7,7.1,-2.6
3419,3.419,16.0,-3.2,10.4,2.5
3420,3.420,13.3,-14.6,8.0,12.5
3421,3.421,9.3,0.1,10.8,14.0
3422,3.422,10.0,9.6,17.8,15.4
3423,3.423,10.6,7.9,-4.9,7.3
3424,3.424,5.3,0.2,4.5,12.7
3425,3.425,6.0,-9.6,-3.5,9.9
3426,3.426,9.4,-16.1,-0.8,10.8
3427,3.427,8.9,-22.0,24.7,2.1
3428,3.428,1.9,-23.0,21.6,12.8
3429,3.429,-1.0,-29.7,0.4,19.9
3430,3.430,-5.3,-21.6,-2.2,13.5
3431,3.431,-17.2,-12.0,5.5,3.0
3432,3.432,-11.9,-2.8,7.9,4.4
3433,3.433,-7.1,14.9,-15.0,3.2
3434,3.434,-5.6,17.4,0.5,-2.6
3435,3.435,-4.2,19.7,8.9,-7.9
3436,3.436,-5.1,9.3,-3.6,-3.0
3437,3.437,-3.9,7.4,-14.9,-12.6
3438,3.438,-2.7,19.5,-12.7,-19.1
3439,3.439,-6.9,14.8,-10.8,-22.5
3440,3.440,-4.3,7.8,-12.5,-17.1
3441,3.441,-3.4,6.5,-4.6,-14.2
3442,3.442,0.1,7.6,-3.3,-9.7
3443,3.443,6.9,10.7,-2.0,-8.8
3444,3.444,8.0,1.9,-19.6,-12.4
3445,3.445,4.2,-6.4,-17.2,-9.1
3446,3.446,0.8,-9.6,-5.7,-2.5
3447,3.447,0.4,-16.4,4.7,2.0
3448,3.448,2.4,-20.8,6.5,-0.4
3449,3.449,4.1,-13.6,11.6,0.4
3450,3.450,3.9,-20.4,13.1,5.0
3451,3.451,4.5,-21.4,0.2,4.4
3452,3.452,1.9,-20.7,1.8,-3.7
3453,3.453,-3.4,-31.7,-9.2,-7.1
3454,3.454,-15.3,-52.3,6.4,8.9
3455,3.455,-10.0,-33.0,4.2,6.6
3456,3.456,-14.5,-0.2,2.3,17.1
3457,3.457,-12.9,13.1,0.5,7.6
3458,3.458,-1.1,17.1,-4.3,5.9
3459,3.459,-5.6,20.6,-14.3,1.3
3460,3.460,-1.2,23.9,-5.3,-11.6
3461,3.461,0.2,32.9,-4.4,-6.5
3462,3.462,6.3,30.1,-18.4,1.3
3463,3.463,-1.0,12.3,-12.9,-8.6
3464,3.464,2.1,-3.8,2.5,-17.7
3465,3.465,-0.5,-6.1,-3.9,-0.1
3466,3.466,-2.8,-4.4,-2.2,7.4
3467,3.467,-9.2,-2.9,9.6,0.5
3468,3.468,2.3,4.7,-14.1,2.5
3469,3.469,7.1,11.6,-4.2,4.3
3470,3.470,5.8,12.8,4.8,5.8
3471,3.471,2.0,13.8,-3.7,4.1
3472,3.472,0.9,16.8,3.6,-0.2
3473,3.473,-2.2,4.0,-8.2,3.4
3474,3.474,-1.2,1.3,-7.2,5.6
3475,3.475,-0.2,6.3,-5.4,4.2
3476,3.476,7.8,-1.6,-0.2,0.8
3477,3.477,8.8,-17.4,4.6,-0.5
3478,3.478,-1.8,-15.4,2.8,1.8
3479,3.479,-8.9,-13.6,-1.8,5.4
3480,3.480,-12.8,-5.1,4.3,-0.1
3481,3.481,-6.9,-6.7,5.0,-5.2
3482,3.482,-3.8,-8.1,-0.8,-8.7
3483,3.483,-4.8,1.0,-2.2,-8.8
3484,3.484,-7.5,6.8,1.7,-8.1
3485,3.485,-5.1,3.7,3.6,-6.6
3486,3.486,-4.4,0.8,-0.5,-11.1
3487,3.487,-9.0,-0.1,-0.4,-11.5
3488,3.488,-0.0,0.7,-2.7,-13.7
3489,3.489,-1.3,5.8,1.7,-11.7
3490,3.490,-0.3,5.2,9.8,-10.8
3491,3.491,-3.5,6.9,3.5,-6.6
3492,3.492,-6.4,7.4,-4.4,-14.0
3493,3.493,-3.8,10.8,1.9,-8.7
3494,3.494,-1.4,5.1,-1.2,-15.1
3495,3.495,-0.7,-3.7,-13.6,-13.7
3496,3.496,-0.2,-4.8,-1.9,-13.8
3497,3.497,3.9,-7.9,-6.9,-13.9
3498,3.498,3.4,-5.0,-17.0,-13.0
3499,3.499,3.8,-0.6,2.4,-19.0
3500,3.500,5.9,9.9,-0.5,-12.8
3501,3.501,9.5,14.2,-3.0,-8.7
3502,3.502,12.8,15.6,-23.8,-16.2
3503,3.503,11.4,21.5,-4.3,-17.3
3504,3.504,5.2,20.6,18.6,-16.4
3505,3.505,4.2,15.8,-2.7,-10.6
3506,3.506,-3.1,16.8,-10.8,-12.6
3507,3.507,-4.2,12.9,-3.0,-18.2
3508,3.508,-10.5,2.1,-0.5,-18.5
3509,3.509,-16.2,-11.9,6.1,-9.9
3510,3.510,-12.6,-25.0,-6.7,-6.0
3511,3.511,-5.5,-40.5,-11.4,-0.3
3512,3.512,1.2,-30.0,-9.3,-7.2
3513,3.513,5.5,-12.8,-1.6,-5.0
3514,3.514,6.2,-1.3,18.6,1.1
3515,3.515,9.8,17.6,27.6,8.7
3516,3.516,9.1,20.2,0.5,22.2
3517,3.517,2.4,8.9,12.4,28.9
3518,3.518,5.0,-1.4,30.1,32.0
3519,3.519,10.6,0.6,27.9,46.5
3520,3.520,8.4,2.4,20.6,49.8
3521,3.521,1.1,-2.2,29.1,46.9
3522,3.522,-3.7,-3.4,46.1,52.8
3523,3.523,-1.1,0.5,49.2,66.2
3524,3.524,-1.9,-0.6,48.4,63.3
3525,3.525,-6.9,0.6,26.9,66.5
3526,3.526,-1.0,-10.0,24.9,67.0
3527,3.527,-0.1,-22.8,51.0,69.9
3528,3.528,-0.8,-14.2,55.4,85.6
3529,3.529,-4.1,-6.3,47.3,100.6
3530,3.530,-2.3,-2.1,51.1,110.9
3531,3.531,-1.8,-5.8,49.6,133.0
3532,3.532,-8.2,0.1,62.1,137.5
3533,3.533,-3.8,1.2,61.0,146.7
3534,3.534,-1.3,2.3,56.3,155.1
3535,3.535,-2.0,-7.3,52.0,150.3
3536,3.536,2.7,-13.7,45.1,134.7
3537,3.537,3.3,-3.1,24.5,110.8
3538,3.538,7.1,6.9,34.4,74.9
3539,3.539,14.7,16.0,21.1,51.4
3540,3.540,0.9,5.5,9.2,39.0
3541,3.541,-4.6,1.4,2.9,35.9
3542,3.542,4.1,-7.6,1.3,18.2
3543,3.543,5.7,-8.7,-7.8,8.8
3544,3.544,7.2,-1.3,-33.4,0.3
3545,3.545,3.5,3.6,-51.7,-29.8
3546,3.546,7.0,6.2,-61.7,-66.2
3547,3.547,10.3,3.8,-70.7,-100.5
3548,3.548,9.4,-7.1,-79.0,-122.9
3549,3.549,8.7,-11.7,-86.6,-143.3
3550,3.550,6.4,-10.3,-84.5,-154.5
3551,3.551,2.9,-9.0,-82.7,-164.8
3552,3.552,3.7,-0.8,-77.4,-192.9
3553,3.553,3.2,4.5,-76.1,-197.0
3554,3.554,8.3,13.2,-75.0,-194.3
3555,3.555,7.7,21.4,-71.3,-191.9
3556,3.556,8.4,26.7,-55.0,-206.7
3557,3.557,4.8,23.8,-67.2,-215.2
3558,3.558,2.4,21.2,-86.8,-223.1
3559,3.559,1.2,22.0,-90.1,-226.3
3560,3.560,1.8,22.7,-97.7,-233.2
3561,3.561,-2.2,12.8,-79.7,-236.2
3562,3.562,-5.8,2.9,-83.2,-220.4
3563,3.563,-9.1,-11.4,-68.1,-201.3
3564,3.564,-5.0,-39.9,-54.6,-161.1
3565,3.565,-6.5,-44.0,-46.2,-96.8
3566,3.566,-10.9,-32.9,-35.2,-72.3
3567,3.567,-5.5,-16.1,-47.3,-50.2
3568,3.568,-6.1,-7.0,-35.6,-30.4
3569,3.569,-6.7,1.3,-17.8,0.6
3570,3.570,-9.7,8.8,-11.5,16.5
3571,3.571,-13.4,11.0,-5.9,52.6
3572,3.572,-10.9,8.9,-9.3,65.2
3573,3.573,-11.3,7.1,-4.9,58.5
3574,3.574,-12.5,-1.6,9.4,60.4
3575,3.575,-11.5,3.5,17.0,71.4
3576,3.576,-6.8,5.0,21.9,80.2
3577,3.577,-0.9,-5.0,11.1,81.3
3578,3.578,-4.9,-11.5,15.0,82.0
3579,3.579,-5.7,-8.1,18.3,82.5
3580,3.580,-3.8,-5.0,29.9,82.7
3581,3.581,-2.1,-2.1,37.3,87.3
3582,3.582,3.8,-4.8,37.5,95.6
3583,3.583,-1.9,-5.6,52.0,106.6
3584,3.584,1.6,-6.4,65.5,106.2
3585,3.585,-1.8,-0.5,58.7,118.2
3586,3.586,-4.8,8.3,73.2,121.8
3587,3.587,-5.4,0.1,82.6,121.5
3588,3.588,-6.0,-3.1,53.0,127.3
3589,3.589,-3.9,5.6,72.5,121.3
3590,3.590,1.3,6.7,82.7,126.0
3591,3.591,1.9,14.1,78.5,125.4
3592,3.592,5.2,5.3,74.6,112.0
3593,3.593,3.3,-0.6,60.0,96.4
3594,3.594,8.2,2.4,67.0,89.4
3595,3.595,2.2,5.3,73.2,100.2
3596,3.596,-1.9,4.3,70.5,97.5
3597,3.597,0.2,6.7,68.3,83.7
3598,3.598,-0.5,-1.3,62.8,77.6
3599,3.599,4.8,6.1,57.9,72.2
3600,3.600,-0.4,7.0,50.6,53.1
3601,3.601,0.2,7.8,36.3,40.1
3602,3.602,5.5,3.8,38.1,33.0
3603,3.603,-1.2,-7.2,39.9,30.8
3604,3.604,-5.7,-18.2,29.2,32.7
3605,3.605,-3.3,-25.4,19.6,21.0
3606,3.606,-1.2,-21.6,18.7,13.6
3607,3.607,2.0,-11.1,3.8,1.3
3608,3.608,-4.7,-1.3,-27.0,-13.6
3609,3.609,-0.3,2.4,-12.9,-27.3
3610,3.610,3.6,-3.6,-0.0,-31.9
3611,3.611,11.6,-2.7,-17.9,-32.5
3612,3.612,16.9,4.0,-20.5,-35.8
3613,3.613,13.9,10.0,-16.6,-41.5
3614,3.614,9.5,10.7,-7.4,-36.1
3615,3.615,7.0,12.7,-39.4,-23.8
3616,3.616,7.7,4.0,-42.9,-29.1
3617,3.617,4.4,0.5,-29.6,-36.4
3618,3.618,7.4,-2.7,-32.3,-35.6
3619,3.619,15.5,-3.7,-41.3,-32.6
3620,3.620,14.3,-4.6,-31.1,-37.4
3621,3.621,9.0,-0.6,-27.2,-41.5
3622,3.622,11.9,7.5,-28.6,-33.9
3623,3.623,5.7,4.3,-25.2,-32.6
3624,3.624,-3.1,1.4,-30.4,-32.6
3625,3.625,-2.0,7.5,-27.4,-27.7
3626,3.626,1.2,-4.5,-31.4,-25.4
3627,3.627,-1.7,-9.7,-28.8,-30.0
3628,3.628,2.8,-1.9,-23.6,-36.2
3629,3.629,5.3,2.2,-23.8,-35.5
3630,3.630,7.6,8.7,-24.0,-31.0
3631,3.631,4.4,12.2,-21.9,-30.3
3632,3.632,1.5,9.0,-25.8,-35.9
3633,3.633,1.1,2.3,-29.3,-31.6
3634,3.634,3.7,-5.7,-16.4,-36.3
3635,3.635,6.8,-6.7,-13.9,-29.4
3636,3.636,4.9,-5.7,-2.2,-34.7
3637,3.637,-0.5,-4.7,-11.3,-37.9
3638,3.638,-12.5,-3.9,-22.4,-24.8
3639,3.639,-28.0,2.7,-14.0,-18.6
3640,3.640,-30.0,1.9,-3.5,-22.3
3641,3.641,-20.5,1.2,-12.0,-20.1
3642,3.642,-18.7,4.8,-12.7,-12.8
3643,3.643,-20.2,4.2,3.7,-11.1
3644,3.644,-13.1,-4.7,10.9,-3.1
3645,3.645,3.9,-8.5,-3.4,-3.6
3646,3.646,6.2,-23.8,-1.3,-0.5
3647,3.647,4.1,-21.6,-6.3,-7.3
3648,3.648,2.3,-8.3,-4.6,-10.0
3649,3.649,-2.8,0.3,16.9,-7.1
3650,3.650,5.0,14.5,7.8,-1.4
3651,3.651,-4.9,27.9,-17.3,3.8
3652,3.652,-8.7,36.5,13.1,-6.1
3653,3.653,-0.5,31.9,8.9,-2.0
3654,3.654,0.6,22.1,-2.3,12.3
3655,3.655,3.5,10.4,1.0,-1.1
3656,3.656,2.7,8.9,-20.6,3.9
3657,3.657,1.9,13.1,-1.4,2.1
3658,3.658,-0.2,22.3,16.0,-2.3
3659,3.659,0.4,9.4,8.9,3.9
3660,3.660,-2.5,0.9,10.8,2.5
3661,3.661,2.4,2.5,1.0,7.4
3662,3.662,-2.2,-1.6,5.9,9.9
3663,3.663,-3.9,-15.8,13.4,-1.9
3664,3.664,2.0,-17.6,17.3,15.0
3665,3.665,-2.0,-26.1,-2.5,16.8
3666,3.666,0.1,-33.9,-0.1,10.2
3667,3.667,4.6,-29.7,7.2,-3.5
3668,3.668,9.9,-20.5,0.0,-5.6
3669,3.669,14.9,-9.9,-10.7,-4.5
3670,3.670,11.5,-0.0,-5.3,-3.5
3671,3.671,8.4,1.3,3.0,5.1
3672,3.672,6.8,2.5,4.2,10.6
3673,3.673,5.2,1.6,-5.9,15.4
3674,3.674,2.1,-3.2,-23.2,10.2
3675,3.675,-4.2,-0.5,6.5,1.8
3676,3.676,-14.8,-0.6,12.1,-0.9
3677,3.677,-15.8,1.9,7.7,6.0
3678,3.678,-19.9,5.5,-3.6,10.4
3679,3.679,-23.7,-0.4,6.3,2.0
3680,3.680,-16.6,-2.8,3.0,-1.5
3681,3.681,-4.1,3.8,0.0,2.9
3682,3.682,0.9,2.9,-2.7,-0.1
3683,3.683,5.5,-2.7,8.6,-4.5
3684,3.684,9.5,-10.7,2.1,-7.1
3685,3.685,8.1,-9.6,-7.5,1.2
3686,3.686,9.1,-4.7,4.3,1.9
3687,3.687,5.9,-5.5,2.6,-1.5
3688,3.688,2.9,-6.3,1.1,1.0
3689,3.689,2.0,-2.6,-10.8,1.6
3690,3.690,7.5,4.7,-0.0,2.1
3691,3.691,15.5,9.6,4.0,5.4
3692,3.692,18.6,8.7,0.1,-0.8
3693,3.693,11.8,-0.1,-1.2,-1.8
3694,3.694,7.3,-1.2,1.8,0.1
3695,3.695,-3.1,-2.2,12.4,3.2
3696,3.696,-1.7,0.7,2.4,12.0
3697,3.697,-0.4,-5.4,-12.0,15.7
3698,3.698,-1.5,-4.6,8.7,0.1
3699,3.699,3.8,-1.0,5.9,-2.1
3700,3.700,-4.9,2.4,3.3,-0.5
3701,3.701,-13.1,0.7,5.5,-12.6
3702,3.702,-18.4,8.8,3.3,-5.0
3703,3.703,-19.3,17.0,1.4,-0.9
3704,3.704,-14.9,18.1,-0.3,-4.9
3705,3.705,-9.2,13.3,-1.9,-3.9
3706,3.706,-4.1,10.6,5.1,1.3
3707,3.707,-2.1,8.1,6.3,8.0
3708,3.708,-2.6,5.9,7.4,3.5
3709,3.709,-4.1,-1.4,4.2,4.3
3710,3.710,0.5,-0.5,-6.5,3.5
3711,3.711,3.5,-1.5,3.3,-3.7
3712,3.712,10.7,2.4,2.0,-0.9
3713,3.713,13.6,13.3,-6.2,8.9
3714,3.714,18.1,11.6,-7.3,-0.2
3715,3.715,19.0,4.5,-6.3,-1.3
3716,3.716,15.5,0.6,-3.7,-0.2
3717,3.717,17.5,1.6,-4.5,6.5
3718,3.718,19.4,-3.7,-0.9,7.5
3719,3.719,15.9,-10.5,8.9,3.5
3720,3.720,11.5,-23.8,10.3,2.8
3721,3.721,5.0,-29.4,-9.2,12.8
3722,3.722,7.8,-10.4,16.0,5.8
3723,3.723,0.6,-2.9,-0.8,9.8
3724,3.724,-0.3,-0.7,-3.9,8.8
3725,3.725,-1.1,9.7,-1.1,1.6
3726,3.726,6.2,11.5,-18.7,16.3
3727,3.727,3.4,13.1,15.9,10.2
3728,3.728,2.5,17.7,20.9,4.7
3729,3.729,3.3,10.5,7.5,6.6
3730,3.730,2.6,1.4,3.5,8.4
3731,3.731,6.0,-16.4,-0.1,-7.1
3732,3.732,4.2,-29.0,-3.4,-0.6
3733,3.733,-2.8,-22.3,5.9,5.2
3734,3.734,-7.5,-20.3,3.3,10.6
3735,3.735,-20.7,-29.9,-4.1,12.4
3736,3.736,-22.5,-21.4,-1.8,5.6
3737,3.737,-17.3,-16.8,0.4,2.1
3738,3.738,-15.7,-9.8,2.4,1.2
3739,3.739,-14.3,-0.8,-9.4,0.5
3740,3.740,-13.0,5.0,-23.4,1.8
3741,3.741,-14.1,1.8,5.2,-11.1
3742,3.742,-10.9,8.5,17.7,-5.1
3743,3.743,-15.7,7.5,6.8,3.8
3744,3.744,-11.3,3.5,10.3,-0.5
3745,3.745,-8.8,-0.2,-4.8,-4.3
3746,3.746,-0.8,0.4,-1.8,-2.6
3747,3.747,-1.8,0.9,5.9,3.7
3748,3.748,3.0,0.3,3.8,1.0
3749,3.749,5.6,-1.2,1.9,-1.5
3750,3.750,6.4,5.5,0.3,-0.3
3751,3.751,7.1,18.0,-1.2,-0.7
3752,3.752,7.7,12.9,0.5,3.3
3753,3.753,-1.3,11.3,-0.6,3.1
3754,3.754,-2.6,15.4,6.1,6.5
3755,3.755,-1.4,21.9,-6.6,-0.2
3756,3.756,-0.4,20.7,-4.7,1.2
3757,3.757,0.6,13.3,12.8,-4.6
3758,3.758,-5.6,12.2,6.2,-1.7
3759,3.759,-4.7,14.8,4.3,-0.6
3760,3.760,0.3,7.5,10.1,-7.4
3761,3.761,4.9,-7.1,1.7,7.5
3762,3.762,-0.5,-5.1,-2.7,5.8
3763,3.763,-2.6,-10.8,-3.9,0.6
3764,3.764,-11.2,-2.3,15.8,6.1
3765,3.765,-17.1,-10.1,13.2,8.0
3766,3.766,-16.1,-11.6,0.8,7.0
3767,3.767,-5.4,-10.3,3.2,0.8
3768,3.768,-1.3,-13.9,1.2,0.0
3769,3.769,2.6,-10.8,3.2,-2.8
3770,3.770,10.7,-6.0,-15.6,4.2
3771,3.771,16.0,-1.7,-18.0,-1.6
3772,3.772,16.9,0.7,-1.9,-7.0
3773,3.773,19.4,4.3,4.5,-6.0
3774,3.774,18.6,10.2,6.4,-2.5
3775,3.775,19.2,17.5,-19.4,0.7
3776,3.776,22.5,12.6,-15.7,-2.8
3777,3.777,21.4,11.3,-5.5,-2.4
3778,3.778,21.9,6.9,4.7,-3.7
3779,3.779,13.8,4.5,-4.4,0.4
3780,3.780,7.9,6.6,-1.7,0.1
3781,3.781,4.7,3.4,-4.2,4.7
3782,3.782,-0.2,-4.4,-1.9,-3.0
3783,3.783,-8.2,2.9,8.5,-6.1
3784,3.784,-5.1,-5.8,6.7,-7.0
3785,3.785,-6.0,-4.6,-12.4,-2.6
3786,3.786,-6.9,-3.6,-4.9,-5.0
3787,3.787,-4.5,-6.4,-16.4,-8.6
3788,3.788,-0.9,-9.0,-6.0,-13.3
3789,3.789,-2.8,-9.7,-7.9,-15.1
3790,3.790,-11.8,-7.5,-9.7,-13.6
3791,3.791,-10.5,-5.5,-2.0,-13.3
3792,3.792,-6.9,-7.1,-0.7,-6.7
3793,3.793,-5.8,-6.6,-9.9,-4.0
3794,3.794,-2.8,-11.0,-22.9,-1.5
3795,3.795,-0.1,-9.1,2.9,-13.7
3796,3.796,-0.8,-9.5,6.4,-12.3
3797,3.797,2.9,-7.0,2.9,-4.7
3798,3.798,-0.3,-4.7,-0.3,-3.5
3799,3.799,0.4,-5.8,-3.2,-5.1
3800,3.800,-4.4,-6.8,-5.9,-1.9
3801,3.801,-6.2,-1.6,-8.3,0.9
3802,3.802,-9.0,2.1,-14.8,-6.1
3803,3.803,-7.4,5.5,-9.4,-9.1
3804,3.804,-10.9,8.5,9.4,-8.6
3805,3.805,-8.7,10.1,-8.5,1.9
3806,3.806,-6.7,13.6,-20.2,0.0
3807,3.807,-1.2,11.5,-18.3,-7.4
3808,3.808,7.6,12.0,9.9,-11.7
3809,3.809,1.6,13.8,13.8,-1.5
3810,3.810,4.7,14.8,2.5,-0.6
3811,3.811,3.6,15.1,5.6,2.8
3812,3.812,4.4,10.9,8.4,-1.1
3813,3.813,1.9,4.4,5.4,-0.5
3814,3.814,4.0,0.0,2.6,1.9
3815,3.815,5.8,7.3,9.1,7.6
3816,3.816,5.1,4.4,15.1,4.7
3817,3.817,4.6,-1.7,1.6,4.9
3818,3.818,7.0,-10.5,3.1,3.8
3819,3.819,5.6,-11.6,13.7,0.3
3820,3.820,8.4,-6.2,23.4,6.9
3821,3.821,2.9,-1.3,11.4,9.3
3822,3.822,-1.2,-0.4,3.3,13.2
3823,3.823,0.9,-1.1,13.0,5.5
3824,3.824,-1.1,-0.3,3.7,0.2
3825,3.825,-1.7,0.4,-9.4,4.1
3826,3.826,-2.3,-0.1,2.4,-2.0
3827,3.827,-2.9,1.5,3.7,-1.7
3828,3.828,-3.4,-0.9,-0.6,3.8
3829,3.829,0.2,-1.3,-2.0,4.1
3830,3.830,7.5,-3.3,-8.1,-5.7
3831,3.831,-2.3,-5.7,-7.2,-12.7
3832,3.832,-19.4,-4.0,3.3,-2.5
3833,3.833,-17.4,-6.7,7.4,10.0
3834,3.834,-11.3,-3.4,3.4,7.9
3835,3.835,-9.7,-7.4,-9.7,9.0
3836,3.836,-8.2,-6.9,-21.8,7.3
3837,3.837,-6.9,-6.4,-17.3,-4.8
3838,3.838,-11.2,-6.8,4.0,-3.6
3839,3.839,-20.5,-4.7,19.2,8.9
3840,3.840,-29.0,-4.4,-0.3,10.2
3841,3.841,-28.1,0.7,2.1,2.1
3842,3.842,-25.4,4.3,4.3,3.2
3843,3.843,-14.1,-0.3,2.2,4.2
3844,3.844,-0.2,0.3,7.8,5.1
3845,3.845,-2.2,1.8,2.7,3.8
3846,3.846,-14.4,1.3,7.3,-3.1
3847,3.847,-9.9,-4.5,0.3,1.1
3848,3.848,-3.0,-0.5,4.1,11.3
3849,3.849,-4.4,-4.1,7.6,4.1
3850,3.850,1.3,-2.2,6.6,7.8
3851,3.851,17.1,-0.4,9.5,6.5
3852,3.852,37.7,1.1,12.2,7.5
3853,3.853,29.3,2.6,0.2,4.5
3854,3.854,36.8,2.9,5.4,1.7
3855,3.855,38.9,6.6,-2.3,5.6
3856,3.856,36.8,5.1,-0.8,10.6
3857,3.857,38.6,2.1,-7.3,8.7
3858,3.858,43.8,4.0,3.4,8.0
3859,3.859,45.4,2.2,10.6,9.5
3860,3.860,32.7,3.9,1.6,15.0
3861,3.861,17.2,-0.1,19.4,14.2
3862,3.862,11.1,-0.6,17.0,16.2
3863,3.863,-5.8,-2.1,10.2,13.2
3864,3.864,-21.5,-2.5,4.1,9.5
3865,3.865,-14.9,-1.4,-9.1,2.1
3866,3.866,-12.8,-2.5,-10.7,-3.2
3867,3.867,-17.7,-0.8,-12.1,-11.9
3868,3.868,-19.0,-2.3,-7.8,-6.0
3869,3.869,-23.0,-2.1,-1.2,-7.0
3870,3.870,-16.3,-1.0,-9.3,-13.7
3871,3.871,-12.8,-2.5,-25.2,-2.1
3872,3.872,-9.6,-5.1,0.2,-3.5
3873,3.873,-10.5,-7.7,10.4,-13.3
3874,3.874,-4.4,-3.3,-4.9,-4.1
3875,3.875,-8.4,-0.4,-13.1,-9.9
3876,3.876,-15.0,-0.9,-25.6,-10.8
3877,3.877,-1.8,1.6,-0.3,-15.5
3878,3.878,6.7,1.3,7.9,-16.0
3879,3.879,8.6,-0.9,-2.2,-7.9
3880,3.880,13.8,1.9,0.9,-6.7
3881,3.881,15.5,5.2,9.3,4.1
3882,3.882,22.6,0.3,1.8,11.3
3883,3.883,11.0,4.8,4.1,-0.2
3884,3.884,12.6,5.4,6.3,1.5
3885,3.885,22.6,1.6,8.2,0.2
3886,3.886,24.0,5.1,-14.3,1.7
3887,3.887,27.6,3.8,1.0,3.0
3888,3.888,16.0,5.0,-1.7,2.1
3889,3.889,2.0,2.5,-9.2,3.2
3890,3.890,0.3,2.8,-2.3,2.5
3891,3.891,-1.2,3.6,-0.2,3.4
3892,3.892,-15.2,3.9,-28.7,4.3
3893,3.893,-13.2,5.1,-16.4,-5.4
3894,3.894,-1.0,4.5,24.5,-6.6
3895,3.895,-2.4,1.5,8.1,10.5
3896,3.896,1.9,1.1,3.2,3.8
3897,3.897,5.9,-0.1,-10.3,-2.3
3898,3.898,4.9,2.4,-6.2,-4.0
3899,3.899,4.0,0.7,-2.5,-5.6
3900,3.900,-4.6,-0.0,0.9,2.4
3901,3.901,-10.4,2.5,4.0,3.9
3902,3.902,-13.4,4.9,-4.3,0.2
3903,3.903,-18.1,6.9,-1.8,-0.8
3904,3.904,-27.7,2.8,-4.0,-3.8
3905,3.905,-47.1,1.1,-1.9,1.1
3906,3.906,-44.3,0.6,-3.8,3.9
3907,3.907,-46.7,-6.8,1.3,3.2
3908,3.908,-58.1,-14.1,2.8,4.0
3909,3.909,-55.9,-7.3,9.9,3.5
3910,3.910,-54.1,-6.4,19.0,4.1
3911,3.911,-76.5,-2.3,8.4,5.7
3912,3.912,-97.9,2.8,-7.2,6.2
3913,3.913,-89.7,-3.1,7.4,6.7
3914,3.914,-51.7,-2.2,-5.8,9.6
3915,3.915,-2.7,-4.4,6.2,4.9
3916,3.916,30.3,-7.6,1.5,1.6
3917,3.917,60.2,-4.6,-8.4,-2.6
3918,3.918,87.5,-3.0,-1.9,-10.7
3919,3.919,92.4,-1.6,-0.7,-11.8
3920,3.920,97.0,-0.2,0.3,-4.4
3921,3.921,109.3,1.0,-6.4,-7.3
3922,3.922,113.0,-0.0,-0.2,-10.0
3923,3.923,103.0,2.4,8.6,-14.0
3924,3.924,81.6,-0.9,-2.0,-3.0
3925,3.925,62.3,-2.2,10.9,-4.6
3926,3.926,24.4,-0.9,9.3,-5.9
3927,3.927,8.1,0.9,4.6,-7.2
3928,3.928,-6.5,6.0,0.5,-13.1
3929,3.929,-28.9,8.2,-0.8,-1.3
3930,3.930,-24.6,3.6,5.1,-2.8
3931,3.931,-28.1,3.1,-10.8,-1.4
3932,3.932,-31.4,4.6,-17.6,-0.1
3933,3.933,-22.1,2.1,13.8,-1.3
3934,3.934,-13.7,0.8,27.3,-2.3
3935,3.935,-11.1,2.0,6.8,0.6
3936,3.936,-4.2,3.1,10.5,5.0
3937,3.937,-22.9,2.1,0.4,1.0
3938,3.938,-25.3,1.3,-2.7,0.3
3939,3.939,-27.5,3.2,-5.4,-3.0
3940,3.940,-21.2,-0.0,12.2,-0.0
3941,3.941,-11.7,5.7,0.7,-1.5
3942,3.942,-6.5,6.5,6.9,-9.0
3943,3.943,-4.9,-0.1,-2.6,2.7
3944,3.944,-0.7,-2.8,-4.3,7.4
3945,3.945,5.9,-0.4,-2.8,0.3
3946,3.946,4.9,-4.0,-4.2,-3.5
3947,3.947,3.9,-6.0,-13.3,-2.4
3948,3.948,5.0,-10.2,-14.5,-7.7
3949,3.949,14.8,-11.7,-11.4,-14.4
3950,3.950,13.6,-11.2,-6.7,-6.4
3951,3.951,3.1,-10.0,-4.1,1.0
3952,3.952,-1.0,-5.5,-3.3,7.7
3953,3.953,-2.2,-6.0,-7.0,5.1
3954,3.954,-10.4,-4.5,-6.4,7.6
3955,3.955,-13.4,-6.0,-2.3,4.0
3956,3.956,-10.5,-3.8,-1.9,7.3
3957,3.957,-6.0,-2.6,-7.4,15.2
3958,3.958,-0.3,-4.4,-9.6,12.1
3959,3.959,-2.5,-0.7,-6.4,9.3
3960,3.960,-0.5,0.8,-5.9,6.7
3961,3.961,4.9,0.4,-5.5,7.5
3962,3.962,5.7,4.1,-2.2,8.3
3963,3.963,3.8,9.5,0.8,11.7
3964,3.964,4.4,8.8,-5.4,7.6
3965,3.965,4.0,5.6,6.0,0.6
3966,3.966,-2.4,6.1,-1.9,11.3
3967,3.967,-15.5,5.7,-17.6,10.0
3968,3.968,-17.2,4.3,-15.7,3.6
3969,3.969,-8.6,5.6,9.0,2.5
3970,3.970,-7.0,3.6,5.5,5.7
3971,3.971,-2.9,3.3,2.4,4.9
3972,3.972,-6.8,3.1,16.2,-8.3
3973,3.973,-15.0,3.4,-11.7,-2.6
3974,3.974,-12.0,4.8,-0.7,2.6
3975,3.975,-21.0,2.6,-4.1,-8.2
3976,3.976,-29.4,1.8,-7.2,-4.0
3977,3.977,-26.6,1.6,1.0,-7.8
3978,3.978,-20.2,3.9,3.5,-4.2
3979,3.979,-12.4,5.4,6.1,-1.1
3980,3.980,-1.3,4.0,12.9,0.1
3981,3.981,6.1,4.8,10.9,1.1
3982,3.982,7.1,5.6,-2.4,0.4
3983,3.983,8.0,5.0,9.6,-5.2
3984,3.984,13.5,4.1,17.5,-2.9
3985,3.985,16.3,4.3,7.6,7.0
3986,3.986,17.0,1.9,6.4,2.9
3987,3.987,19.3,3.7,14.6,-3.5
3988,3.988,26.2,2.0,5.0,-4.5
3989,3.989,21.0,1.8,14.2,-16.2
3990,3.990,11.0,-0.1,20.1,-5.2
3991,3.991,4.2,-1.8,4.2,4.7
3992,3.992,-2.0,1.1,-2.5,3.5
3993,3.993,-9.6,-1.7,12.2,-4.7
3994,3.994,-14.7,0.1,6.7,-7.8
3995,3.995,-12.4,-2.3,-8.8,-1.0
3996,3.996,-10.2,-3.1,-2.5,-5.4
3997,3.997,-5.4,-6.7,7.1,-7.8
3998,3.998,-6.4,-10.2,2.1,-4.2
3999,3.999,-4.9,-9.8,6.9,-3.5
4000,4.000,-2.5,-11.0,-8.6,-4.1
4001,4.001,-2.2,-8.6,-10.5,-5.6
